285	3108
284	3110
283	3112
282	3115
282	3117
281	3119
281	3121
280	3123
279	3125
279	3127
278	3129
278	3131
277	3133
278	3135
278	3137
278	3139
278	3141
278	3143
278	3145
278	3147
278	3149
278	3151
278	3153
278	3155
278	3158
279	3160
279	3162
280	3164
280	3166
281	3168
280	3170
282	3172
282	3174
284	3176
282	3178
284	3180
285	3182
286	3184
287	3186
288	3188
288	3190
289	3192
290	3194
291	3196
293	3198
293	3200
292	3202
296	3204
297	3206
299	3208
300	3210
302	3212
302	3214
305	3216
306	3218
307	3220
309	3222
310	3224
311	3226
312	3228
313	3230
315	3232
316	3234
316	3236
317	3238
318	3240
319	3243
320	3245
320	3247
322	3249
324	3251
322	3253
324	3255
323	3257
323	3259
323	3261
323	3263
323	3265
321	3267
323	3269
322	3271
323	3273
322	3275
322	3277
322	3279
321	3281
320	3283
320	3286
319	3288
319	3290
318	3292
318	3294
316	3296
315	3298
314	3300
313	3302
312	3304
314	3306
311	3308
310	3310
309	3312
308	3314
307	3316
307	3318
306	3320
305	3322
304	3324
303	3326
301	3328
302	3330
301	3332
300	3334
299	3336
300	3338
297	3340
296	3342
295	3344
295	3346
294	3348
294	3350
294	3352
293	3354
292	3356
292	3358
291	3360
291	3362
290	3364
290	3366
289	3368
289	3371
289	3373
289	3375
289	3377
288	3379
288	3381
289	3383
289	3385
289	3387
289	3389
289	3391
289	3393
289	3395
289	3397
289	3399
289	3401
289	3403
289	3405
289	3407
289	3409
290	3411
291	3414
291	3416
291	3418
292	3420
292	3422
292	3424
293	3426
293	3428
293	3430
293	3432
293	3434
293	3436
293	3438
293	3440
293	3442
293	3444
293	3446
293	3448
292	3450
292	3452
292	3454
292	3456
291	3458
291	3460
290	3462
290	3464
290	3466
289	3468
289	3470
289	3472
288	3474
288	3476
288	3478
288	3480
287	3482
287	3484
287	3486
289	3488
287	3490
286	3492
286	3494
286	3496
286	3499
286	3501
285	3503
285	3505
287	3507
282	3509
284	3511
283	3513
284	3515
285	3517
288	3519
291	3521
297	3523
301	3525
308	3527
316	3529
324	3531
333	3533
343	3535
351	3537
358	3539
364	3542
368	3544
370	3546
371	3548
370	3550
368	3552
367	3554
364	3556
361	3558
357	3560
353	3562
350	3564
346	3566
342	3568
341	3570
335	3572
332	3574
329	3576
327	3578
323	3580
320	3582
317	3584
316	3586
313	3588
310	3590
308	3592
305	3594
303	3596
301	3598
299	3600
297	3602
295	3604
293	3606
291	3608
290	3610
290	3612
287	3614
286	3616
284	3618
283	3620
282	3622
282	3624
281	3627
280	3629
278	3631
279	3633
279	3635
278	3637
278	3639
276	3641
277	3643
277	3645
277	3647
277	3649
275	3651
277	3653
277	3655
277	3657
278	3659
278	3661
277	3663
278	3665
278	3667
278	3670
279	3672
279	3674
280	3676
281	3678
280	3680
281	3682
281	3684
282	3686
283	3688
281	3690
284	3692
285	3694
286	3696
289	3698
287	3700
289	3702
292	3704
291	3706
292	3708
293	3710
294	3712
295	3714
296	3716
297	3718
299	3720
302	3722
301	3724
303	3726
304	3728
305	3730
305	3732
306	3734
309	3736
310	3738
312	3740
312	3742
313	3744
313	3746
315	3748
316	3750
317	3752
317	3755
318	3757
318	3759
319	3761
319	3763
319	3765
320	3767
320	3769
320	3771
320	3773
321	3775
321	3777
321	3779
321	3781
320	3783
320	3785
320	3787
319	3789
319	3791
319	3793
318	3795
318	3798
317	3800
316	3802
315	3804
314	3806
314	3808
313	3810
312	3812
311	3814
311	3816
310	3818
309	3820
308	3822
307	3824
306	3826
305	3828
304	3830
304	3832
303	3834
302	3836
302	3838
301	3840
300	3842
300	3844
299	3846
298	3848
298	3850
297	3852
296	3854
295	3856
295	3858
294	3860
291	3862
293	3864
292	3866
292	3868
292	3870
291	3872
291	3874
290	3876
290	3878
289	3880
289	3883
288	3885
289	3887
288	3889
288	3891
288	3893
288	3895
288	3897
289	3899
289	3901
289	3903
287	3905
289	3907
289	3909
288	3911
290	3913
290	3915
290	3917
290	3919
291	3921
291	3923
291	3926
291	3928
294	3930
292	3932
293	3934
294	3936
292	3938
294	3940
294	3942
294	3944
295	3946
295	3948
294	3950
295	3952
294	3954
293	3956
294	3958
292	3960
294	3962
294	3964
293	3966
293	3968
292	3970
292	3972
292	3974
289	3976
291	3978
291	3980
290	3982
290	3984
290	3986
292	3988
289	3990
289	3992
288	3994
288	3996
289	3998
290	4000
288	4002
288	4004
288	4006
288	4008
288	4011
287	4013
287	4015
287	4017
285	4019
288	4021
286	4023
285	4025
285	4027
286	4029
287	4031
290	4033
293	4035
297	4037
302	4039
309	4041
316	4043
324	4045
334	4047
344	4049
352	4051
359	4054
366	4056
370	4058
374	4060
376	4062
375	4064
374	4066
373	4068
369	4070
366	4072
362	4074
359	4076
355	4078
351	4080
349	4082
344	4084
340	4086
339	4088
332	4090
330	4092
327	4094
325	4096
322	4098
319	4100
316	4102
313	4104
311	4106
308	4108
306	4110
302	4112
301	4114
299	4116
297	4118
295	4120
291	4122
291	4124
290	4126
288	4128
287	4130
288	4132
286	4134
283	4136
282	4139
281	4141
280	4143
279	4145
279	4147
276	4149
278	4151
277	4153
279	4155
276	4157
274	4159
276	4161
276	4163
276	4165
273	4167
275	4169
274	4171
275	4173
275	4175
276	4177
276	4179
276	4182
276	4184
277	4186
275	4188
277	4190
278	4192
278	4194
277	4196
280	4198
280	4200
281	4202
282	4204
283	4206
285	4208
284	4210
285	4212
286	4214
287	4216
288	4218
289	4220
290	4222
291	4224
292	4226
293	4228
295	4230
298	4232
296	4234
299	4236
300	4238
301	4240
302	4242
303	4244
305	4246
306	4248
307	4250
308	4252
309	4254
310	4256
311	4258
311	4260
313	4262
314	4264
314	4267
315	4269
315	4271
316	4273
317	4275
317	4277
318	4279
318	4281
318	4283
319	4285
319	4287
319	4289
319	4291
319	4293
319	4295
319	4297
319	4299
319	4301
319	4303
319	4305
318	4307
318	4310
317	4312
317	4314
316	4316
315	4318
314	4320
314	4322
312	4324
312	4326
311	4328
310	4330
310	4332
309	4334
308	4336
307	4338
306	4340
306	4342
305	4344
304	4346
303	4348
302	4350
302	4352
299	4354
300	4356
300	4358
299	4360
297	4362
297	4364
297	4366
296	4368
296	4370
295	4372
293	4374
294	4376
293	4378
291	4380
292	4382
292	4384
292	4386
291	4388
291	4390
291	4392
290	4395
290	4397
289	4399
289	4401
289	4403
289	4405
288	4407
288	4409
288	4411
289	4413
288	4415
289	4417
288	4419
289	4421
289	4423
289	4425
290	4427
290	4429
290	4431
290	4433
290	4435
290	4438
291	4440
291	4442
292	4444
290	4446
293	4448
293	4450
294	4452
294	4454
295	4456
296	4458
296	4460
296	4462
296	4464
296	4466
296	4468
295	4470
295	4472
295	4474
295	4476
295	4478
295	4480
295	4482
295	4484
294	4486
294	4488
294	4490
293	4492
293	4494
292	4496
292	4498
292	4500
291	4502
291	4504
291	4506
291	4508
290	4510
291	4512
290	4514
290	4516
290	4518
288	4520
290	4523
290	4525
290	4527
287	4529
289	4531
289	4533
289	4535
290	4537
288	4539
287	4541
286	4543
287	4545
286	4547
287	4549
288	4551
293	4553
293	4555
297	4557
305	4559
312	4561
320	4563
329	4566
341	4568
348	4570
356	4572
363	4574
368	4576
373	4578
375	4580
376	4582
374	4584
373	4586
371	4588
368	4590
365	4592
362	4594
358	4596
354	4598
351	4600
347	4602
344	4604
340	4606
337	4608
335	4610
332	4612
328	4614
325	4616
322	4618
319	4620
318	4622
313	4624
309	4626
308	4628
307	4630
303	4632
300	4634
299	4636
297	4638
295	4640
293	4642
291	4644
289	4646
288	4648
287	4651
285	4653
284	4655
283	4657
282	4659
281	4661
281	4663
280	4665
279	4667
279	4669
278	4671
278	4673
278	4675
277	4677
277	4679
277	4681
277	4683
277	4685
277	4687
277	4689
277	4691
277	4694
277	4696
277	4698
277	4700
278	4702
278	4704
281	4706
279	4708
279	4710
280	4712
280	4714
281	4716
281	4718
284	4720
283	4722
283	4724
284	4726
284	4728
285	4730
286	4732
289	4734
290	4736
289	4738
290	4740
292	4742
293	4744
295	4746
296	4748
297	4750
299	4752
300	4754
302	4756
303	4758
304	4760
305	4762
307	4764
308	4766
310	4768
311	4770
312	4772
313	4774
314	4776
315	4779
316	4781
316	4783
316	4785
318	4787
319	4789
319	4791
320	4793
320	4795
321	4797
321	4799
321	4801
322	4803
323	4805
322	4807
322	4809
322	4811
322	4813
321	4815
321	4817
320	4819
320	4822
320	4824
319	4826
319	4828
318	4830
317	4832
317	4834
316	4836
315	4838
314	4840
314	4842
313	4844
312	4846
311	4848
310	4850
309	4852
308	4854
307	4856
307	4858
306	4860
305	4862
304	4864
303	4866
303	4868
301	4870
301	4872
299	4874
299	4876
298	4878
298	4880
296	4882
296	4884
295	4886
296	4888
294	4890
293	4892
293	4894
292	4896
292	4898
291	4900
291	4902
290	4904
290	4907
289	4909
289	4911
289	4913
289	4915
288	4917
288	4919
287	4921
287	4923
287	4925
288	4927
288	4929
286	4931
286	4933
286	4935
285	4937
287	4939
287	4941
287	4943
287	4945
288	4947
288	4950
288	4952
286	4954
290	4956
290	4958
289	4960
288	4962
292	4964
292	4966
290	4968
291	4970
291	4972
291	4974
292	4976
292	4978
293	4980
295	4982
294	4984
294	4986
294	4988
295	4990
295	4992
293	4994
295	4996
294	4998
294	5000
294	5002
295	5004
294	5006
294	5008
294	5010
294	5012
293	5014
291	5016
293	5018
292	5020
294	5022
292	5024
292	5026
291	5028
289	5030
291	5032
291	5035
290	5037
293	5039
290	5041
290	5043
290	5045
292	5047
290	5049
290	5051
290	5053
289	5055
289	5057
289	5059
288	5061
288	5063
287	5065
287	5067
286	5069
286	5071
287	5073
287	5075
290	5078
291	5080
295	5082
301	5084
307	5086
317	5088
323	5090
332	5092
342	5094
350	5096
358	5098
365	5100
370	5102
373	5104
374	5106
374	5108
374	5110
372	5112
370	5114
367	5116
364	5118
362	5120
359	5122
353	5124
351	5126
347	5128
344	5130
341	5132
337	5134
334	5136
331	5138
327	5140
324	5142
321	5144
318	5146
317	5148
312	5150
310	5152
307	5154
305	5156
303	5158
301	5160
298	5163
297	5165
295	5167
293	5169
292	5171
290	5173
289	5175
288	5177
286	5179
286	5181
284	5183
283	5185
282	5187
280	5189
281	5191
280	5193
279	5195
279	5197
278	5199
278	5201
278	5203
276	5206
278	5208
279	5210
278	5212
278	5214
278	5216
279	5218
280	5220
279	5222
279	5224
279	5226
282	5228
281	5230
281	5232
281	5234
281	5236
282	5238
282	5240
281	5242
283	5244
284	5246
282	5248
285	5250
288	5252
287	5254
290	5256
291	5258
290	5260
291	5262
292	5264
293	5266
294	5268
296	5270
297	5272
296	5274
299	5276
302	5278
302	5280
304	5282
306	5284
308	5286
309	5288
310	5291
312	5293
311	5295
314	5297
315	5299
317	5301
317	5303
318	5305
319	5307
320	5309
318	5311
321	5313
322	5315
325	5317
323	5319
324	5321
324	5323
324	5325
322	5327
325	5329
325	5331
325	5334
325	5336
325	5338
325	5340
324	5342
324	5344
323	5346
323	5348
322	5350
321	5352
320	5354
319	5356
319	5358
318	5360
316	5362
315	5364
315	5366
313	5368
312	5370
311	5372
310	5374
310	5376
309	5378
308	5380
307	5382
306	5384
305	5386
304	5388
303	5390
302	5392
301	5394
302	5396
299	5398
298	5400
300	5402
297	5404
296	5406
295	5408
295	5410
292	5412
294	5414
293	5416
292	5419
291	5421
291	5423
291	5425
290	5427
290	5429
290	5431
289	5433
288	5435
288	5437
289	5439
290	5441
287	5443
287	5445
284	5447
286	5449
286	5451
285	5453
285	5455
284	5457
285	5459
284	5462
283	5464
283	5466
283	5468
284	5470
284	5472
284	5474
285	5476
285	5478
286	5480
288	5482
286	5484
287	5486
287	5488
287	5490
288	5492
288	5494
289	5496
289	5498
289	5500
290	5502
290	5504
291	5506
291	5508
292	5510
291	5512
293	5514
293	5516
294	5518
294	5520
294	5522
294	5524
296	5526
295	5528
295	5530
294	5532
294	5534
294	5536
292	5538
294	5540
293	5542
294	5544
293	5547
293	5549
294	5551
292	5553
292	5555
292	5557
291	5559
291	5561
291	5563
291	5565
291	5567
290	5569
290	5571
290	5573
289	5575
290	5577
289	5579
289	5581
289	5583
289	5585
289	5587
289	5590
289	5592
289	5594
289	5596
289	5598
288	5600
288	5602
287	5604
287	5606
288	5608
289	5610
292	5612
295	5614
300	5616
307	5618
313	5620
322	5622
330	5624
340	5626
349	5628
354	5630
360	5632
366	5634
371	5636
374	5638
376	5640
375	5642
374	5644
373	5646
368	5648
368	5650
365	5652
361	5654
357	5656
354	5658
349	5660
347	5662
343	5664
340	5666
336	5668
333	5670
330	5672
327	5675
324	5677
320	5679
318	5681
314	5683
312	5685
311	5687
306	5689
304	5691
302	5693
299	5695
297	5697
295	5699
294	5701
292	5703
290	5705
289	5707
287	5709
288	5711
286	5713
285	5715
284	5718
281	5720
282	5722
281	5724
281	5726
280	5728
280	5730
279	5732
279	5734
278	5736
277	5738
278	5740
278	5742
278	5744
278	5746
276	5748
278	5750
278	5752
278	5754
278	5756
279	5758
279	5760
279	5762
279	5764
280	5766
280	5768
281	5770
281	5772
281	5774
281	5776
282	5778
285	5780
284	5782
285	5784
286	5786
287	5788
288	5790
289	5792
290	5794
291	5796
293	5798
294	5800
295	5803
297	5805
298	5807
300	5809
301	5811
303	5813
305	5815
306	5817
307	5819
306	5821
309	5823
311	5825
312	5827
313	5829
315	5831
316	5833
317	5835
318	5837
319	5839
320	5841
321	5843
321	5846
322	5848
323	5850
321	5852
323	5854
324	5856
324	5858
326	5860
325	5862
324	5864
324	5866
324	5868
324	5870
324	5872
324	5874
321	5876
321	5878
323	5880
324	5882
321	5884
321	5886
321	5888
320	5890
319	5892
318	5894
317	5896
316	5898
315	5900
315	5902
313	5904
312	5906
312	5908
311	5910
309	5912
309	5914
306	5916
307	5918
306	5920
305	5922
304	5924
303	5926
302	5928
301	5931
300	5933
299	5935
298	5937
297	5939
297	5941
296	5943
295	5945
294	5947
294	5949
293	5951
292	5953
292	5955
291	5957
290	5959
289	5961
289	5963
288	5965
290	5967
287	5969
287	5971
285	5974
286	5976
284	5978
286	5980
286	5982
286	5984
285	5986
286	5988
286	5990
285	5992
285	5994
285	5996
285	5998
285	6000
285	6002
285	6004
286	6006
286	6008
286	6010
284	6012
287	6014
287	6016
287	6018
287	6020
287	6022
288	6024
288	6026
288	6028
288	6030
289	6032
290	6034
289	6036
290	6038
291	6040
291	6042
292	6044
292	6046
293	6048
293	6050
293	6052
294	6054
294	6056
294	6059
294	6061
296	6063
292	6065
294	6067
294	6069
294	6071
294	6073
294	6075
293	6077
293	6079
294	6081
292	6083
292	6085
291	6087
291	6089
291	6091
291	6093
290	6095
290	6097
291	6099
289	6102
289	6104
290	6106
289	6108
289	6110
289	6112
288	6114
289	6116
289	6118
289	6120
289	6122
289	6124
289	6126
288	6128
289	6130
288	6132
288	6134
287	6136
285	6138
287	6140
287	6142
288	6144
289	6146
292	6148
294	6150
299	6152
307	6154
314	6156
322	6158
331	6160
340	6162
348	6164
354	6166
362	6168
367	6170
370	6172
372	6174
372	6176
371	6178
369	6180
366	6182
363	6184
360	6187
359	6189
353	6191
349	6193
346	6195
342	6197
339	6199
336	6201
333	6203
330	6205
326	6207
323	6209
320	6211
318	6213
315	6215
312	6217
309	6219
307	6221
305	6223
302	6225
300	6227
298	6230
294	6232
294	6234
292	6236
291	6238
289	6240
288	6242
288	6244
287	6246
285	6248
285	6250
283	6252
282	6254
281	6256
280	6258
280	6260
279	6262
279	6264
278	6266
278	6268
276	6270
280	6272
278	6274
277	6276
278	6278
278	6280
277	6282
277	6284
278	6286
277	6288
276	6290
278	6292
278	6294
278	6296
278	6298
279	6300
279	6302
280	6304
281	6306
282	6308
282	6310
283	6312
286	6315
285	6317
286	6319
287	6321
288	6323
289	6325
290	6327
291	6329
292	6331
294	6333
295	6335
296	6337
298	6339
299	6341
300	6343
301	6345
303	6347
304	6349
306	6351
308	6353
309	6355
310	6358
311	6360
312	6362
315	6364
315	6366
316	6368
317	6370
318	6372
319	6374
320	6376
321	6378
321	6380
322	6382
321	6384
322	6386
323	6388
323	6390
324	6392
324	6394
324	6396
324	6398
326	6400
324	6402
324	6404
324	6406
324	6408
323	6410
323	6412
323	6414
320	6416
322	6418
321	6420
320	6422
320	6424
319	6426
318	6428
317	6430
316	6432
315	6434
314	6436
313	6438
312	6440
311	6443
310	6445
309	6447
308	6449
306	6451
304	6453
305	6455
304	6457
303	6459
302	6461
301	6463
300	6465
299	6467
298	6469
298	6471
297	6473
296	6475
295	6477
294	6479
293	6481
292	6483
292	6486
291	6488
291	6490
290	6492
290	6494
289	6496
291	6498
288	6500
288	6502
286	6504
288	6506
287	6508
287	6510
287	6512
286	6514
286	6516
286	6518
286	6520
285	6522
285	6524
285	6526
285	6528
285	6530
285	6532
285	6534
285	6536
285	6538
285	6540
285	6542
286	6544
286	6546
286	6548
286	6550
287	6552
287	6554
287	6556
287	6558
286	6560
290	6562
288	6564
287	6566
288	6568
289	6571
289	6573
290	6575
291	6577
291	6579
292	6581
292	6583
293	6585
293	6587
292	6589
293	6591
291	6593
293	6595
294	6597
294	6599
294	6601
294	6603
294	6605
293	6607
293	6609
293	6611
293	6614
293	6616
292	6618
292	6620
292	6622
291	6624
291	6626
290	6628
290	6630
292	6632
290	6634
290	6636
290	6638
289	6640
290	6642
289	6644
289	6646
289	6648
289	6650
289	6652
289	6654
289	6656
288	6658
287	6660
288	6662
288	6664
287	6666
286	6668
286	6670
286	6672
287	6674
288	6676
291	6678
294	6680
298	6682
304	6684
312	6686
319	6688
329	6690
337	6692
346	6694
354	6696
359	6699
364	6701
367	6703
369	6705
368	6707
368	6709
363	6711
361	6713
358	6715
355	6717
351	6719
348	6721
344	6723
340	6725
337	6727
334	6729
333	6731
328	6733
325	6735
322	6737
319	6739
316	6742
314	6744
311	6746
309	6748
307	6750
304	6752
302	6754
300	6756
298	6758
297	6760
295	6762
293	6764
292	6766
293	6768
290	6770
289	6772
288	6774
286	6776
286	6778
285	6780
284	6782
284	6784
283	6786
282	6788
282	6790
280	6792
282	6794
281	6796
281	6798
281	6800
279	6802
281	6804
280	6806
280	6808
281	6810
281	6812
279	6814
281	6816
281	6818
281	6820
282	6822
282	6824
282	6827
283	6829
283	6831
283	6833
284	6835
286	6837
286	6839
286	6841
287	6843
287	6845
288	6847
289	6849
291	6851
291	6853
292	6855
295	6857
294	6859
295	6861
296	6863
298	6865
299	6867
300	6870
302	6872
303	6874
303	6876
306	6878
307	6880
309	6882
308	6884
311	6886
314	6888
313	6890
315	6892
316	6894
317	6896
319	6898
321	6900
323	6902
322	6904
323	6906
324	6908
324	6910
325	6912
326	6914
327	6916
327	6918
328	6920
328	6922
328	6924
329	6926
328	6928
328	6930
326	6932
328	6934
328	6936
327	6938
325	6940
326	6942
326	6944
325	6946
327	6948
324	6950
323	6952
323	6955
322	6957
321	6959
320	6961
319	6963
318	6965
316	6967
315	6969
314	6971
313	6973
311	6975
310	6977
309	6979
308	6981
307	6983
306	6985
305	6987
304	6989
303	6991
302	6993
301	6995
300	6998
299	7000
298	7002
298	7004
297	7006
296	7008
295	7010
295	7012
295	7014
293	7016
293	7018
290	7020
293	7022
291	7024
290	7026
291	7028
290	7030
289	7032
289	7034
288	7036
288	7038
288	7040
287	7042
287	7044
286	7046
286	7048
287	7050
284	7052
285	7054
285	7056
284	7058
285	7060
284	7062
285	7064
285	7066
285	7068
283	7070
286	7072
283	7074
285	7076
286	7078
286	7080
286	7083
286	7085
286	7087
286	7089
289	7091
288	7093
288	7095
288	7097
290	7099
290	7101
291	7103
290	7105
291	7107
291	7109
292	7111
292	7113
292	7115
293	7117
293	7119
291	7121
293	7123
293	7126
292	7128
292	7130
294	7132
292	7134
292	7136
292	7138
293	7140
291	7142
291	7144
290	7146
290	7148
290	7150
290	7152
289	7154
289	7156
288	7158
288	7160
285	7162
287	7164
287	7166
287	7168
285	7170
287	7172
286	7174
287	7176
287	7178
287	7180
287	7182
287	7184
287	7186
286	7188
286	7190
287	7192
285	7194
284	7196
284	7198
284	7200
285	7202
287	7204
291	7206
295	7208
300	7211
307	7213
314	7215
323	7217
332	7219
339	7221
349	7223
355	7225
362	7227
363	7229
367	7231
366	7233
364	7235
362	7237
360	7239
357	7241
354	7243
351	7245
349	7247
343	7249
340	7251
336	7254
333	7256
331	7258
328	7260
325	7262
320	7264
317	7266
317	7268
314	7270
311	7272
309	7274
308	7276
305	7278
303	7280
301	7282
299	7284
297	7286
295	7288
293	7290
292	7292
289	7294
290	7296
289	7298
287	7300
286	7302
285	7304
284	7306
283	7308
282	7310
281	7312
281	7314
281	7316
280	7318
282	7320
282	7322
279	7324
279	7326
279	7328
280	7330
279	7332
279	7334
280	7336
280	7339
280	7341
280	7343
280	7345
281	7347
281	7349
281	7351
282	7353
282	7355
282	7357
283	7359
283	7361
284	7363
282	7365
285	7367
286	7369
286	7371
287	7373
288	7375
288	7377
290	7379
289	7382
292	7384
293	7386
294	7388
295	7390
296	7392
297	7394
297	7396
300	7398
301	7400
303	7402
305	7404
306	7406
308	7408
309	7410
311	7412
310	7414
314	7416
315	7418
316	7420
317	7422
316	7424
319	7426
320	7428
321	7430
322	7432
323	7434
324	7436
324	7438
325	7440
326	7442
326	7444
326	7446
327	7448
326	7450
327	7452
327	7454
327	7456
327	7458
327	7460
326	7462
326	7464
326	7467
326	7469
323	7471
323	7473
323	7475
322	7477
319	7479
320	7481
319	7483
318	7485
318	7487
317	7489
316	7491
315	7493
314	7495
313	7497
312	7499
311	7501
310	7503
309	7505
308	7507
307	7510
306	7512
305	7514
304	7516
303	7518
303	7520
301	7522
301	7524
300	7526
299	7528
298	7530
297	7532
297	7534
296	7536
295	7538
294	7540
294	7542
293	7544
292	7546
292	7548
291	7550
291	7552
290	7554
289	7556
289	7558
289	7560
288	7562
288	7564
287	7566
287	7568
286	7570
286	7572
286	7574
285	7576
285	7578
285	7580
285	7582
284	7584
284	7586
285	7588
285	7590
282	7592
285	7595
285	7597
284	7599
286	7601
286	7603
286	7605
286	7607
286	7609
287	7611
287	7613
289	7615
287	7617
288	7619
289	7621
289	7623
289	7625
289	7627
288	7629
291	7631
291	7633
292	7635
292	7638
293	7640
293	7642
293	7644
293	7646
293	7648
293	7650
293	7652
293	7654
293	7656
293	7658
295	7660
292	7662
293	7664
290	7666
292	7668
291	7670
291	7672
290	7674
290	7676
290	7678
289	7680
289	7682
290	7684
289	7686
288	7688
288	7690
288	7692
288	7694
288	7696
288	7698
288	7700
288	7702
286	7704
287	7706
287	7708
287	7710
285	7712
287	7714
287	7716
287	7718
286	7720
285	7723
285	7725
285	7727
286	7729
287	7731
289	7733
295	7735
297	7737
302	7739
311	7741
319	7743
328	7745
337	7747
346	7749
353	7751
360	7753
367	7755
369	7757
371	7759
372	7761
368	7763
368	7766
365	7768
363	7770
359	7772
356	7774
353	7776
349	7778
345	7780
342	7782
338	7784
335	7786
332	7788
328	7790
325	7792
323	7794
319	7796
317	7798
314	7800
310	7802
311	7804
307	7806
304	7808
303	7810
301	7812
299	7814
297	7816
295	7818
293	7820
292	7822
290	7824
289	7826
286	7828
286	7830
285	7832
285	7834
283	7836
282	7838
282	7840
283	7842
283	7844
280	7846
280	7848
279	7851
279	7853
279	7855
279	7857
279	7859
279	7861
278	7863
278	7865
278	7867
278	7869
279	7871
279	7873
279	7875
279	7877
280	7879
280	7881
281	7883
281	7885
281	7887
282	7889
283	7891
285	7894
283	7896
284	7898
285	7900
285	7902
286	7904
287	7906
288	7908
289	7910
290	7912
291	7914
292	7916
294	7918
295	7920
296	7922
298	7924
299	7926
301	7928
302	7930
304	7932
305	7934
306	7936
307	7938
308	7940
310	7942
311	7944
313	7946
314	7948
316	7950
316	7952
317	7954
318	7956
319	7958
320	7960
323	7962
319	7964
322	7966
323	7968
323	7970
323	7972
324	7974
324	7976
324	7979
324	7981
324	7983
324	7985
324	7987
324	7989
324	7991
323	7993
323	7995
322	7997
322	7999
320	8001
320	8003
320	8005
319	8007
318	8009
315	8011
317	8013
316	8015
315	8017
314	8019
313	8022
313	8024
311	8026
311	8028
310	8030
309	8032
308	8034
307	8036
306	8038
307	8040
304	8042
304	8044
303	8046
302	8048
301	8050
298	8052
300	8054
299	8056
299	8058
297	8060
294	8062
296	8064
296	8066
294	8068
294	8070
293	8072
292	8074
291	8076
291	8078
290	8080
290	8082
290	8084
289	8086
289	8088
288	8090
288	8092
288	8094
287	8096
287	8098
288	8100
286	8102
286	8104
286	8107
286	8109
284	8111
285	8113
285	8115
286	8117
287	8119
286	8121
286	8123
286	8125
284	8127
287	8129
287	8131
287	8133
287	8135
288	8137
288	8139
288	8141
288	8143
289	8145
288	8147
289	8150
289	8152
290	8154
290	8156
291	8158
290	8160
292	8162
292	8164
292	8166
292	8168
293	8170
293	8172
294	8174
294	8176
294	8178
292	8180
294	8182
294	8184
293	8186
293	8188
293	8190
293	8192
291	8194
292	8196
292	8198
292	8200
294	8202
291	8204
291	8206
291	8208
290	8210
290	8212
290	8214
290	8216
289	8218
289	8220
289	8222
289	8224
289	8226
288	8228
288	8230
288	8232
288	8235
289	8237
288	8239
288	8241
288	8243
288	8245
286	8247
287	8249
286	8251
286	8253
286	8255
286	8257
288	8259
289	8261
294	8263
298	8265
304	8267
311	8269
319	8271
328	8273
337	8275
346	8278
356	8280
361	8282
367	8284
371	8286
373	8288
374	8290
373	8292
371	8294
368	8296
366	8298
362	8300
359	8302
355	8304
351	8306
349	8308
344	8310
340	8312
337	8314
334	8316
330	8318
329	8320
326	8322
322	8324
319	8326
317	8328
314	8330
311	8332
309	8334
304	8336
304	8338
300	8340
298	8342
297	8344
296	8346
294	8348
293	8350
290	8352
289	8354
288	8356
287	8358
285	8360
284	8363
283	8365
283	8367
282	8369
279	8371
280	8373
279	8375
278	8377
278	8379
278	8381
277	8383
278	8385
278	8387
278	8389
278	8391
278	8393
277	8395
278	8397
278	8399
280	8401
279	8403
279	8406
278	8408
280	8410
280	8412
281	8414
281	8416
282	8418
282	8420
283	8422
283	8424
284	8426
285	8428
286	8430
286	8432
287	8434
287	8436
289	8438
288	8440
291	8442
292	8444
293	8446
294	8448
294	8450
296	8452
297	8454
300	8456
300	8458
301	8460
302	8462
304	8464
305	8466
307	8468
310	8470
310	8472
311	8474
312	8476
314	8478
315	8480
316	8482
318	8484
319	8486
320	8488
323	8491
321	8493
322	8495
323	8497
323	8499
324	8501
325	8503
324	8505
324	8507
324	8509
325	8511
324	8513
324	8515
324	8517
326	8519
323	8521
323	8523
324	8525
324	8527
321	8529
320	8531
320	8534
319	8536
318	8538
317	8540
317	8542
317	8544
313	8546
314	8548
313	8550
312	8552
311	8554
310	8556
309	8558
308	8560
307	8562
307	8564
305	8566
304	8568
303	8570
302	8572
301	8574
301	8576
300	8578
299	8580
299	8582
298	8584
297	8586
296	8588
296	8590
295	8592
294	8594
293	8596
293	8598
294	8600
292	8602
291	8604
291	8606
290	8608
289	8610
289	8612
289	8614
288	8616
288	8619
288	8621
287	8623
287	8625
287	8627
286	8629
286	8631
286	8633
285	8635
285	8637
285	8639
283	8641
286	8643
285	8645
285	8647
285	8649
286	8651
286	8653
287	8655
286	8657
288	8659
287	8662
288	8664
288	8666
288	8668
286	8670
290	8672
289	8674
289	8676
290	8678
290	8680
290	8682
291	8684
291	8686
292	8688
292	8690
292	8692
293	8694
295	8696
293	8698
295	8700
293	8702
293	8704
293	8706
293	8708
294	8710
293	8712
292	8714
290	8716
293	8718
292	8720
292	8722
292	8724
290	8726
291	8728
293	8730
290	8732
290	8734
290	8736
290	8738
290	8740
289	8742
289	8744
289	8747
289	8749
289	8751
287	8753
288	8755
288	8757
288	8759
288	8761
288	8763
288	8765
288	8767
288	8769
288	8771
287	8773
287	8775
284	8777
285	8779
285	8781
286	8783
289	8785
289	8787
292	8790
296	8792
301	8794
307	8796
316	8798
324	8800
334	8802
343	8804
352	8806
361	8808
366	8810
370	8812
374	8814
375	8816
374	8818
372	8820
370	8822
368	8824
365	8826
362	8828
357	8830
356	8832
352	8834
348	8836
344	8838
341	8840
337	8842
334	8844
329	8846
328	8848
324	8850
321	8852
319	8854
318	8856
313	8858
310	8860
307	8862
305	8864
303	8866
301	8868
299	8870
297	8872
295	8875
294	8877
291	8879
290	8881
289	8883
287	8885
286	8887
284	8889
283	8891
282	8893
281	8895
280	8897
282	8899
279	8901
279	8903
279	8905
278	8907
278	8909
280	8911
278	8913
278	8915
278	8918
278	8920
278	8922
278	8924
278	8926
279	8928
279	8930
279	8932
280	8934
280	8936
280	8938
281	8940
281	8942
283	8944
282	8946
282	8948
283	8950
284	8952
284	8954
283	8956
285	8958
286	8960
287	8962
288	8964
290	8966
290	8968
291	8970
292	8972
295	8974
295	8976
294	8978
297	8980
297	8982
300	8984
301	8986
303	8988
304	8990
306	8992
307	8994
307	8996
312	8998
311	9000
313	9003
314	9005
315	9007
316	9009
318	9011
318	9013
319	9015
320	9017
321	9019
322	9021
323	9023
323	9025
324	9027
324	9029
324	9031
324	9033
324	9035
323	9037
324	9039
324	9041
324	9043
324	9046
323	9048
323	9050
322	9052
322	9054
321	9056
321	9058
320	9060
317	9062
319	9064
318	9066
317	9068
316	9070
315	9072
314	9074
313	9076
312	9078
311	9080
310	9082
309	9084
308	9086
307	9088
309	9090
306	9092
305	9094
304	9096
303	9098
302	9100
301	9102
300	9104
299	9106
298	9108
297	9110
295	9112
296	9114
294	9116
295	9118
294	9120
294	9122
293	9124
293	9126
292	9128
292	9131
289	9133
290	9135
289	9137
289	9139
289	9141
287	9143
288	9145
285	9147
287	9149
287	9151
287	9153
284	9155
286	9157
286	9159
285	9161
286	9163
285	9165
285	9167
285	9169
285	9171
287	9174
285	9176
285	9178
286	9180
286	9182
286	9184
287	9186
287	9188
287	9190
287	9192
287	9194
288	9196
290	9198
288	9200
289	9202
289	9204
290	9206
290	9208
290	9210
291	9212
291	9214
291	9216
292	9218
293	9220
293	9222
293	9224
293	9226
293	9228
293	9230
293	9232
293	9234
294	9236
294	9238
292	9240
293	9242
293	9244
293	9246
293	9248
292	9250
292	9252
292	9254
290	9256
291	9259
291	9261
291	9263
291	9265
290	9267
292	9269
291	9271
290	9273
289	9275
289	9277
289	9279
289	9281
289	9283
289	9285
289	9287
289	9289
288	9291
289	9293
288	9295
288	9297
288	9299
288	9302
287	9304
287	9306
286	9308
285	9310
285	9312
286	9314
288	9316
291	9318
295	9320
300	9322
306	9324
314	9326
322	9328
332	9330
339	9332
348	9334
355	9336
364	9338
369	9340
373	9342
374	9344
375	9346
374	9348
372	9350
369	9352
366	9354
364	9356
359	9358
356	9360
352	9362
347	9364
344	9366
340	9368
337	9370
334	9372
330	9374
327	9376
324	9378
320	9380
317	9382
315	9384
312	9387
310	9389
307	9391
303	9393
303	9395
301	9397
300	9399
297	9401
296	9403
294	9405
293	9407
289	9409
290	9411
288	9413
288	9415
286	9417
283	9419
284	9421
283	9423
282	9425
282	9427
279	9430
280	9432
278	9434
279	9436
280	9438
279	9440
279	9442
279	9444
278	9446
281	9448
278	9450
278	9452
278	9454
279	9456
279	9458
279	9460
278	9462
279	9464
280	9466
280	9468
281	9470
281	9472
281	9474
282	9476
282	9478
283	9480
284	9482
285	9484
285	9486
286	9488
287	9490
290	9492
288	9494
289	9496
291	9498
292	9500
293	9502
296	9504
296	9506
297	9508
299	9510
301	9512
302	9515
303	9517
305	9519
307	9521
308	9523
310	9525
311	9527
313	9529
315	9531
314	9533
316	9535
318	9537
320	9539
319	9541
321	9543
321	9545
322	9547
323	9549
324	9551
324	9553
324	9555
324	9558
325	9560
325	9562
325	9564
326	9566
325	9568
325	9570
324	9572
324	9574
324	9576
323	9578
323	9580
322	9582
322	9584
323	9586
320	9588
319	9590
318	9592
317	9594
317	9596
316	9598
315	9600
313	9602
313	9604
312	9606
311	9608
310	9610
310	9612
309	9614
308	9616
307	9618
306	9620
305	9622
305	9624
304	9626
303	9628
302	9630
302	9632
300	9634
299	9636
301	9638
296	9640
297	9643
297	9645
296	9647
297	9649
295	9651
294	9653
293	9655
293	9657
292	9659
291	9661
290	9663
290	9665
290	9667
288	9669
289	9671
288	9673
288	9675
286	9677
287	9679
287	9681
286	9683
286	9686
286	9688
285	9690
285	9692
285	9694
284	9696
285	9698
285	9700
285	9702
285	9704
286	9706
286	9708
286	9710
286	9712
286	9714
287	9716
285	9718
287	9720
287	9722
288	9724
288	9726
288	9728
288	9730
289	9732
287	9734
289	9736
290	9738
290	9740
291	9742
291	9744
292	9746
292	9748
293	9750
294	9752
294	9754
294	9756
293	9758
294	9760
294	9762
293	9764
293	9766
293	9768
293	9771
293	9773
293	9775
294	9777
292	9779
292	9781
291	9783
291	9785
291	9787
290	9789
288	9791
289	9793
289	9795
290	9797
288	9799
288	9801
287	9803
288	9805
288	9807
288	9809
288	9811
287	9814
288	9816
287	9818
287	9820
287	9822
287	9824
287	9826
287	9828
287	9830
286	9832
283	9834
285	9836
284	9838
287	9840
289	9842
292	9844
296	9846
299	9848
308	9850
312	9852
322	9854
327	9856
336	9858
345	9860
352	9862
359	9864
364	9866
369	9868
369	9870
369	9872
367	9874
364	9876
362	9878
358	9880
355	9882
351	9884
347	9886
344	9888
342	9890
336	9892
333	9894
330	9896
328	9899
323	9901
319	9903
318	9905
317	9907
311	9909
310	9911
309	9913
306	9915
304	9917
302	9919
300	9921
299	9923
297	9925
295	9927
293	9929
292	9931
293	9933
289	9935
288	9937
287	9939
286	9942
285	9944
285	9946
284	9948
283	9950
282	9952
282	9954
282	9956
281	9958
281	9960
281	9962
280	9964
281	9966
281	9968
281	9970
280	9972
281	9974
280	9976
281	9978
280	9980
281	9982
279	9984
282	9986
282	9988
283	9990
283	9992
284	9994
286	9996
287	9998
283	10000
285	10002
286	10004
286	10006
287	10008
288	10010
289	10012
288	10014
290	10016
291	10018
292	10020
293	10022
294	10024
295	10027
296	10029
297	10031
298	10033
300	10035
301	10037
303	10039
304	10041
306	10043
307	10045
308	10047
310	10049
312	10051
311	10053
314	10055
316	10057
315	10059
318	10061
319	10063
320	10065
321	10067
322	10070
323	10072
324	10074
324	10076
325	10078
325	10080
328	10082
326	10084
326	10086
326	10088
325	10090
327	10092
326	10094
326	10096
326	10098
326	10100
325	10102
325	10104
326	10106
323	10108
323	10110
322	10112
321	10114
320	10116
319	10118
318	10120
318	10122
316	10124
316	10126
315	10128
314	10130
313	10132
312	10134
311	10136
310	10138
310	10140
309	10142
308	10144
307	10146
306	10148
305	10150
304	10152
303	10155
303	10157
302	10159
301	10161
300	10163
299	10165
299	10167
298	10169
297	10171
296	10173
295	10175
295	10177
294	10179
294	10181
293	10183
292	10185
292	10187
291	10189
291	10191
290	10193
290	10195
289	10198
289	10200
288	10202
288	10204
287	10206
287	10208
287	10210
287	10212
286	10214
284	10216
288	10218
286	10220
286	10222
286	10224
286	10226
285	10228
284	10230
286	10232
285	10234
284	10236
286	10238
285	10240
287	10242
287	10244
288	10246
288	10248
290	10250
288	10252
288	10254
289	10256
289	10258
290	10260
293	10262
291	10264
292	10266
292	10268
293	10270
293	10272
293	10274
294	10276
294	10278
293	10280
294	10283
293	10285
293	10287
293	10289
293	10291
293	10293
293	10295
293	10297
292	10299
292	10301
292	10303
293	10305
291	10307
290	10309
290	10311
289	10313
289	10315
289	10317
288	10319
288	10321
288	10323
288	10326
288	10328
287	10330
288	10332
288	10334
288	10336
287	10338
289	10340
285	10342
287	10344
285	10346
287	10348
287	10350
287	10352
288	10354
286	10356
286	10358
286	10360
285	10362
289	10364
291	10366
294	10368
298	10370
303	10372
309	10374
317	10376
325	10378
333	10380
342	10382
350	10384
355	10386
361	10388
365	10390
367	10392
368	10394
367	10396
364	10398
361	10400
360	10402
355	10404
351	10406
348	10408
344	10411
341	10413
336	10415
333	10417
330	10419
327	10421
324	10423
322	10425
319	10427
316	10429
312	10431
311	10433
309	10435
306	10437
304	10439
302	10441
301	10443
298	10445
297	10447
295	10449
293	10451
292	10454
290	10456
289	10458
288	10460
286	10462
286	10464
285	10466
284	10468
283	10470
284	10472
283	10474
279	10476
280	10478
280	10480
280	10482
279	10484
279	10486
279	10488
279	10490
279	10492
277	10494
279	10496
277	10498
278	10500
279	10502
279	10504
279	10506
279	10508
280	10510
280	10512
280	10514
281	10516
281	10518
282	10520
283	10522
282	10524
283	10526
284	10528
282	10530
285	10532
286	10534
289	10536
288	10539
288	10541
289	10543
290	10545
291	10547
293	10549
294	10551
295	10553
296	10555
298	10557
299	10559
300	10561
301	10563
303	10565
304	10567
306	10569
307	10571
308	10573
310	10575
311	10577
312	10579
313	10582
314	10584
315	10586
316	10588
316	10590
318	10592
321	10594
322	10596
323	10598
320	10600
321	10602
322	10604
322	10606
322	10608
322	10610
322	10612
322	10614
322	10616
322	10618
322	10620
320	10622
321	10624
321	10626
321	10628
319	10630
320	10632
320	10634
319	10636
320	10638
318	10640
317	10642
316	10644
316	10646
315	10648
314	10650
313	10652
312	10654
312	10656
311	10658
309	10660
310	10662
309	10664
308	10667
308	10669
307	10671
307	10673
305	10675
305	10677
306	10679
303	10681
302	10683
302	10685
300	10687
300	10689
299	10691
298	10693
298	10695
297	10697
296	10699
295	10701
295	10703
294	10705
294	10707
293	10710
293	10712
292	10714
292	10716
291	10718
291	10720
290	10722
289	10724
289	10726
289	10728
289	10730
288	10732
288	10734
286	10736
288	10738
288	10740
287	10742
288	10744
288	10746
290	10748
288	10750
288	10752
288	10754
289	10756
289	10758
289	10760
289	10762
290	10764
290	10766
290	10768
290	10770
291	10772
291	10774
291	10776
291	10778
292	10780
292	10782
292	10784
293	10786
293	10788
294	10790
295	10792
294	10795
294	10797
295	10799
295	10801
295	10803
294	10805
294	10807
294	10809
294	10811
294	10813
293	10815
293	10817
293	10819
294	10821
293	10823
292	10825
292	10827
290	10829
291	10831
291	10833
290	10835
290	10838
290	10840
290	10842
291	10844
289	10846
289	10848
289	10850
289	10852
289	10854
288	10856
288	10858
290	10860
288	10862
288	10864
290	10866
288	10868
288	10870
288	10872
288	10874
287	10876
287	10878
289	10880
287	10882
287	10884
288	10886
290	10888
293	10890
297	10892
302	10894
308	10896
315	10898
324	10900
331	10902
338	10904
349	10906
357	10908
363	10910
369	10912
373	10914
375	10916
375	10918
373	10920
372	10923
370	10925
366	10927
363	10929
359	10931
355	10933
352	10935
348	10937
344	10939
341	10941
337	10943
334	10945
329	10947
327	10949
325	10951
321	10953
318	10955
315	10957
312	10959
310	10961
307	10963
305	10966
303	10968
300	10970
298	10972
297	10974
295	10976
293	10978
292	10980
290	10982
288	10984
285	10986
286	10988
284	10990
283	10992
283	10994
282	10996
281	10998
280	11000
281	11002
279	11004
278	11006
278	11008
278	11010
277	11012
277	11014
275	11016
279	11018
275	11020
277	11022
275	11024
277	11026
275	11028
277	11030
277	11032
277	11034
278	11036
278	11038
279	11040
279	11042
280	11044
280	11046
281	11048
281	11051
282	11053
283	11055
283	11057
284	11059
283	11061
286	11063
287	11065
290	11067
289	11069
290	11071
291	11073
293	11075
294	11077
295	11079
295	11081
298	11083
299	11085
300	11087
302	11089
303	11091
306	11094
306	11096
307	11098
308	11100
310	11102
311	11104
312	11106
313	11108
314	11110
314	11112
317	11114
316	11116
317	11118
320	11120
318	11122
319	11124
319	11126
319	11128
320	11130
320	11132
320	11134
320	11136
320	11138
319	11140
319	11142
318	11144
318	11146
319	11148
319	11150
319	11152
318	11154
318	11156
317	11158
318	11160
316	11162
315	11164
314	11166
314	11168
313	11170
312	11172
309	11174
310	11176
308	11179
309	11181
308	11183
308	11185
307	11187
306	11189
306	11191
304	11193
304	11195
303	11197
302	11199
301	11201
302	11203
300	11205
298	11207
298	11209
298	11211
297	11213
297	11215
296	11217
296	11219
296	11222
295	11224
295	11226
294	11228
294	11230
293	11232
293	11234
292	11236
292	11238
292	11240
291	11242
291	11244
290	11246
290	11248
289	11250
289	11252
289	11254
289	11256
288	11258
288	11260
288	11262
288	11264
288	11266
287	11268
287	11270
288	11272
286	11274
288	11276
288	11278
288	11280
288	11282
288	11284
288	11286
289	11288
289	11290
289	11292
289	11294
289	11296
290	11298
291	11300
290	11302
291	11304
291	11307
292	11309
292	11311
293	11313
293	11315
294	11317
294	11319
295	11321
295	11323
295	11325
296	11327
296	11329
296	11331
296	11333
295	11335
295	11337
295	11339
296	11341
295	11343
297	11345
295	11347
294	11350
294	11352
294	11354
294	11356
293	11358
293	11360
292	11362
292	11364
291	11366
291	11368
291	11370
290	11372
290	11374
290	11376
290	11378
290	11380
289	11382
289	11384
289	11386
290	11388
289	11390
289	11392
289	11394
288	11396
291	11398
289	11400
289	11402
288	11404
289	11406
288	11408
287	11410
287	11412
288	11414
291	11416
293	11418
297	11420
302	11422
308	11424
315	11426
323	11428
333	11430
342	11432
351	11435
359	11437
366	11439
371	11441
375	11443
378	11445
378	11447
377	11449
375	11451
373	11453
370	11455
368	11457
363	11459
359	11461
355	11463
352	11465
348	11467
342	11469
341	11471
335	11473
334	11475
331	11478
328	11480
324	11482
323	11484
318	11486
315	11488
312	11490
310	11492
308	11494
304	11496
303	11498
301	11500
298	11502
297	11504
295	11506
293	11508
292	11510
290	11512
289	11514
287	11516
286	11518
285	11520
284	11522
283	11524
282	11526
281	11528
280	11530
280	11532
279	11534
280	11536
279	11538
278	11540
278	11542
277	11544
277	11546
277	11548
277	11550
277	11552
277	11554
277	11556
277	11558
279	11560
277	11563
276	11565
278	11567
278	11569
279	11571
279	11573
280	11575
280	11577
281	11579
282	11581
282	11583
283	11585
284	11587
285	11589
286	11591
287	11593
288	11595
289	11597
290	11599
291	11601
292	11603
294	11606
295	11608
296	11610
298	11612
299	11614
300	11616
302	11618
303	11620
306	11622
306	11624
307	11626
306	11628
310	11630
311	11632
312	11634
313	11636
314	11638
316	11640
317	11642
317	11644
320	11646
319	11648
320	11650
320	11652
320	11654
321	11656
319	11658
321	11660
321	11662
322	11664
321	11666
321	11668
321	11670
320	11672
320	11674
322	11676
319	11678
319	11680
318	11682
318	11684
317	11686
317	11688
316	11691
315	11693
314	11695
313	11697
310	11699
311	11701
310	11703
312	11705
308	11707
309	11709
307	11711
306	11713
305	11715
305	11717
304	11719
304	11721
303	11723
302	11725
302	11727
301	11729
301	11731
300	11734
301	11736
298	11738
297	11740
297	11742
297	11744
296	11746
295	11748
294	11750
294	11752
294	11754
293	11756
292	11758
292	11760
291	11762
291	11764
290	11766
290	11768
290	11770
289	11772
289	11774
289	11776
288	11778
288	11780
287	11782
288	11784
287	11786
287	11788
286	11790
286	11792
286	11794
286	11796
286	11798
286	11800
286	11802
286	11804
286	11806
287	11808
287	11810
287	11812
287	11814
288	11816
288	11819
288	11821
288	11823
289	11825
289	11827
289	11829
289	11831
289	11833
290	11835
290	11837
292	11839
289	11841
292	11843
292	11845
295	11847
293	11849
294	11851
293	11853
294	11855
294	11857
294	11859
294	11862
294	11864
294	11866
293	11868
293	11870
293	11872
293	11874
292	11876
292	11878
292	11880
291	11882
291	11884
290	11886
290	11888
290	11890
288	11892
290	11894
290	11896
290	11898
290	11900
289	11902
289	11904
289	11906
289	11908
289	11910
289	11912
289	11914
289	11916
289	11918
289	11920
289	11922
289	11924
288	11926
288	11928
288	11930
288	11932
288	11934
287	11936
285	11938
287	11940
287	11942
288	11944
291	11947
293	11949
297	11951
300	11953
309	11955
316	11957
325	11959
333	11961
342	11963
352	11965
361	11967
365	11969
370	11971
374	11973
373	11975
375	11977
373	11979
371	11981
368	11983
365	11985
360	11987
357	11990
353	11992
349	11994
346	11996
342	11998
339	12000
335	12002
332	12004
328	12006
326	12008
322	12010
319	12012
316	12014
311	12016
311	12018
308	12020
306	12022
304	12024
301	12026
300	12028
297	12030
297	12032
294	12034
293	12036
291	12038
289	12040
288	12042
286	12044
285	12046
284	12048
283	12050
282	12052
281	12054
279	12056
280	12058
279	12060
279	12062
278	12064
278	12066
278	12068
277	12070
275	12072
277	12075
277	12077
277	12079
277	12081
278	12083
278	12085
276	12087
278	12089
279	12091
279	12093
280	12095
280	12097
281	12099
281	12101
284	12103
282	12105
283	12107
283	12109
284	12111
285	12113
285	12115
286	12118
287	12120
290	12122
289	12124
290	12126
291	12128
292	12130
293	12132
295	12134
296	12136
297	12138
298	12140
300	12142
301	12144
303	12146
304	12148
307	12150
309	12152
309	12154
310	12156
312	12158
312	12160
314	12162
315	12164
316	12166
317	12168
318	12170
319	12172
320	12174
321	12176
322	12178
322	12180
323	12182
323	12184
323	12186
323	12188
324	12190
323	12192
323	12194
323	12196
323	12198
322	12200
322	12203
322	12205
321	12207
321	12209
320	12211
319	12213
319	12215
318	12217
316	12219
317	12221
316	12223
315	12225
316	12227
314	12229
313	12231
311	12233
311	12235
310	12237
309	12239
308	12241
307	12243
307	12246
306	12248
305	12250
304	12252
303	12254
302	12256
302	12258
301	12260
302	12262
297	12264
298	12266
297	12268
296	12270
297	12272
296	12274
297	12276
297	12278
294	12280
296	12282
292	12284
292	12286
292	12288
292	12290
291	12292
291	12294
291	12296
290	12298
292	12300
290	12302
288	12304
289	12306
289	12308
288	12310
288	12312
288	12314
287	12316
287	12318
287	12320
286	12322
288	12324
286	12326
286	12328
285	12331
285	12333
285	12335
285	12337
285	12339
286	12341
286	12343
286	12345
286	12347
286	12349
286	12351
286	12353
286	12355
287	12357
289	12359
288	12361
288	12363
288	12365
288	12367
289	12369
290	12371
290	12374
291	12376
292	12378
292	12380
292	12382
293	12384
293	12386
294	12388
294	12390
294	12392
292	12394
295	12396
295	12398
295	12400
295	12402
295	12404
297	12406
295	12408
293	12410
293	12412
294	12414
294	12416
294	12418
293	12420
293	12422
293	12424
291	12426
291	12428
291	12430
291	12432
291	12434
290	12436
290	12438
290	12440
289	12442
289	12444
289	12446
289	12448
288	12450
288	12452
287	12454
288	12456
288	12459
288	12461
288	12463
288	12465
288	12467
288	12469
286	12471
287	12473
287	12475
288	12477
291	12479
291	12481
294	12483
300	12485
305	12487
311	12489
320	12491
327	12493
336	12495
345	12497
353	12499
359	12502
364	12504
366	12506
370	12508
370	12510
368	12512
365	12514
362	12516
358	12518
354	12520
350	12522
346	12524
342	12526
338	12528
335	12530
331	12532
327	12534
325	12536
321	12538
319	12540
316	12542
316	12544
312	12546
311	12548
307	12550
305	12552
303	12554
301	12556
299	12558
298	12560
296	12562
294	12564
293	12566
292	12568
290	12570
289	12572
288	12574
287	12576
286	12578
285	12580
285	12582
283	12584
282	12587
282	12589
282	12591
280	12593
280	12595
282	12597
280	12599
278	12601
280	12603
279	12605
280	12607
280	12609
280	12611
280	12613
281	12615
281	12617
279	12619
281	12621
281	12623
281	12625
282	12627
283	12630
283	12632
282	12634
284	12636
285	12638
284	12640
286	12642
287	12644
286	12646
288	12648
289	12650
289	12652
290	12654
291	12656
292	12658
293	12660
294	12662
295	12664
296	12666
298	12668
299	12670
300	12672
304	12674
303	12676
302	12678
306	12680
308	12682
309	12684
310	12686
312	12688
315	12690
314	12692
316	12694
317	12696
318	12698
319	12700
322	12702
321	12704
322	12706
323	12708
324	12710
324	12712
325	12715
326	12717
326	12719
326	12721
326	12723
326	12725
326	12727
325	12729
323	12731
325	12733
324	12735
324	12737
324	12739
323	12741
322	12743
322	12745
321	12747
320	12749
320	12751
319	12753
318	12755
317	12758
316	12760
316	12762
315	12764
314	12766
313	12768
312	12770
312	12772
311	12774
311	12776
309	12778
309	12780
308	12782
309	12784
308	12786
306	12788
305	12790
304	12792
304	12794
303	12796
302	12798
301	12800
301	12802
300	12804
299	12806
299	12808
297	12810
297	12812
296	12814
293	12816
294	12818
294	12820
293	12822
293	12824
292	12826
291	12828
291	12830
290	12832
290	12834
289	12836
289	12838
287	12840
289	12843
288	12845
288	12847
288	12849
288	12851
287	12853
287	12855
286	12857
286	12859
286	12861
286	12863
285	12865
284	12867
285	12869
285	12871
285	12873
285	12875
283	12877
286	12879
286	12881
285	12883
286	12886
287	12888
287	12890
287	12892
288	12894
288	12896
288	12898
289	12900
289	12902
289	12904
290	12906
290	12908
291	12910
291	12912
292	12914
292	12916
292	12918
293	12920
294	12922
294	12924
294	12926
294	12928
295	12930
295	12932
294	12934
295	12936
295	12938
295	12940
295	12942
294	12944
294	12946
292	12948
294	12950
293	12952
293	12954
295	12956
293	12958
292	12960
292	12962
291	12964
291	12966
290	12968
290	12971
290	12973
288	12975
289	12977
289	12979
289	12981
289	12983
289	12985
288	12987
289	12989
289	12991
289	12993
289	12995
289	12997
289	12999
288	13001
288	13003
288	13005
288	13007
286	13009
288	13011
288	13014
290	13016
292	13018
295	13020
300	13022
305	13024
311	13026
318	13028
328	13030
334	13032
342	13034
350	13036
357	13038
362	13040
366	13042
366	13044
367	13046
366	13048
365	13050
360	13052
356	13054
355	13056
351	13058
346	13060
342	13062
338	13064
335	13066
331	13068
328	13070
326	13072
323	13074
320	13076
318	13078
315	13080
313	13082
310	13084
308	13086
306	13088
304	13090
301	13092
301	13094
300	13096
297	13099
296	13101
294	13103
293	13105
292	13107
290	13109
289	13111
288	13113
287	13115
286	13117
286	13119
284	13121
284	13123
283	13125
282	13127
282	13129
281	13131
282	13133
280	13135
280	13137
280	13139
279	13142
279	13144
279	13146
280	13148
280	13150
280	13152
279	13154
281	13156
281	13158
284	13160
282	13162
283	13164
283	13166
284	13168
284	13170
284	13172
285	13174
288	13176
286	13178
287	13180
287	13182
288	13184
288	13186
289	13188
290	13190
290	13192
291	13194
292	13196
293	13198
294	13200
295	13202
296	13204
298	13206
300	13208
301	13210
303	13212
304	13214
305	13216
306	13218
308	13220
309	13222
310	13224
311	13227
312	13229
313	13231
314	13233
315	13235
317	13237
320	13239
319	13241
322	13243
321	13245
319	13247
322	13249
322	13251
323	13253
324	13255
324	13257
324	13259
324	13261
324	13263
324	13265
324	13267
323	13270
323	13272
323	13274
322	13276
324	13278
322	13280
321	13282
321	13284
321	13286
320	13288
318	13290
319	13292
318	13294
317	13296
316	13298
315	13300
313	13302
314	13304
313	13306
312	13308
311	13310
311	13312
312	13314
309	13316
308	13318
307	13320
306	13322
306	13324
305	13326
304	13328
302	13330
302	13332
302	13334
300	13336
301	13338
300	13340
299	13342
299	13344
298	13346
297	13348
297	13350
296	13352
295	13355
295	13357
294	13359
293	13361
293	13363
293	13365
294	13367
293	13369
291	13371
291	13373
290	13375
290	13377
288	13379
289	13381
289	13383
289	13385
288	13387
288	13389
288	13391
288	13393
287	13395
289	13398
287	13400
286	13402
287	13404
287	13406
286	13408
286	13410
286	13412
286	13414
286	13416
286	13418
287	13420
284	13422
287	13424
287	13426
287	13428
290	13430
288	13432
288	13434
288	13436
289	13438
289	13440
289	13442
288	13444
290	13446
291	13448
292	13450
292	13452
291	13454
293	13456
293	13458
294	13460
294	13462
295	13464
295	13466
295	13468
296	13470
296	13472
296	13474
296	13476
296	13478
296	13480
296	13483
296	13485
296	13487
296	13489
296	13491
295	13493
295	13495
294	13497
294	13499
294	13501
294	13503
293	13505
292	13507
290	13509
292	13511
292	13513
291	13515
289	13517
291	13519
291	13521
290	13523
290	13526
290	13528
290	13530
290	13532
290	13534
290	13536
290	13538
289	13540
289	13542
289	13544
291	13546
289	13548
289	13550
289	13552
288	13554
288	13556
289	13558
290	13560
292	13562
295	13564
299	13566
302	13568
307	13570
312	13572
322	13574
329	13576
338	13578
347	13580
353	13582
361	13584
367	13586
371	13588
373	13590
374	13592
374	13594
370	13596
367	13598
363	13600
359	13602
356	13604
351	13606
347	13608
343	13611
340	13613
337	13615
333	13617
330	13619
327	13621
322	13623
321	13625
318	13627
316	13629
314	13631
310	13633
309	13635
306	13637
306	13639
302	13641
300	13643
296	13645
296	13647
294	13649
293	13651
292	13654
290	13656
289	13658
287	13660
286	13662
285	13664
284	13666
283	13668
282	13670
281	13672
280	13674
282	13676
280	13678
279	13680
278	13682
278	13684
278	13686
278	13688
278	13690
278	13692
278	13694
280	13696
278	13698
278	13700
279	13702
279	13704
279	13706
279	13708
280	13710
280	13712
280	13714
281	13716
282	13718
282	13720
283	13722
283	13724
284	13726
285	13728
285	13730
286	13732
288	13734
288	13736
289	13739
288	13741
292	13743
292	13745
293	13747
294	13749
294	13751
297	13753
298	13755
299	13757
301	13759
302	13761
304	13763
307	13765
307	13767
308	13769
310	13771
310	13773
312	13775
313	13777
314	13779
315	13782
317	13784
318	13786
318	13788
320	13790
320	13792
321	13794
321	13796
322	13798
322	13800
323	13802
323	13804
323	13806
323	13808
323	13810
323	13812
323	13814
323	13816
322	13818
322	13820
321	13822
320	13824
321	13826
320	13828
319	13830
319	13832
318	13834
317	13836
317	13838
316	13840
315	13842
314	13844
314	13846
313	13848
310	13850
311	13852
310	13854
309	13856
308	13858
308	13860
307	13862
306	13864
305	13867
305	13869
304	13871
302	13873
302	13875
303	13877
301	13879
300	13881
300	13883
300	13885
297	13887
299	13889
297	13891
297	13893
296	13895
296	13897
295	13899
294	13901
294	13903
293	13905
292	13907
292	13910
292	13912
291	13914
291	13916
290	13918
290	13920
289	13922
289	13924
290	13926
288	13928
288	13930
288	13932
288	13934
288	13936
289	13938
287	13940
286	13942
287	13944
286	13946
286	13948
286	13950
286	13952
286	13954
286	13956
286	13958
286	13960
286	13962
285	13964
284	13966
285	13968
285	13970
285	13972
285	13974
285	13976
285	13978
286	13980
286	13982
287	13984
286	13986
287	13988
287	13990
288	13992
288	13995
288	13997
289	13999
289	14001
290	14003
290	14005
290	14007
291	14009
291	14011
292	14013
292	14015
293	14017
293	14019
294	14021
294	14023
295	14025
295	14027
296	14029
296	14031
299	14033
297	14035
297	14038
297	14040
297	14042
297	14044
296	14046
296	14048
298	14050
295	14052
295	14054
295	14056
295	14058
294	14060
293	14062
294	14064
294	14066
293	14068
293	14070
293	14072
292	14074
292	14076
292	14078
292	14080
292	14082
291	14084
291	14086
292	14088
291	14090
293	14092
291	14094
291	14096
291	14098
291	14100
291	14102
291	14104
291	14106
290	14108
290	14110
289	14112
289	14114
289	14116
290	14118
291	14120
293	14123
298	14125
299	14127
305	14129
311	14131
318	14133
327	14135
336	14137
345	14139
354	14141
360	14143
367	14145
369	14147
374	14149
376	14151
375	14153
373	14155
370	14157
367	14159
364	14161
360	14163
357	14166
353	14168
349	14170
345	14172
342	14174
338	14176
335	14178
332	14180
329	14182
326	14184
322	14186
320	14188
317	14190
312	14192
314	14194
309	14196
307	14198
305	14200
303	14202
301	14204
299	14206
298	14208
296	14210
294	14212
293	14214
291	14216
290	14218
288	14220
287	14222
286	14224
284	14226
284	14228
284	14230
282	14232
281	14234
282	14236
280	14238
279	14240
279	14242
279	14244
279	14246
276	14248
278	14251
278	14253
278	14255
278	14257
278	14259
279	14261
279	14263
279	14265
279	14267
280	14269
280	14271
278	14273
281	14275
281	14277
282	14279
282	14281
283	14283
284	14285
284	14287
284	14289
283	14291
286	14294
287	14296
286	14298
289	14300
290	14302
291	14304
293	14306
294	14308
295	14310
296	14312
298	14314
299	14316
301	14318
302	14320
304	14322
305	14324
306	14326
308	14328
309	14330
310	14332
312	14334
312	14336
314	14338
313	14340
317	14342
317	14344
318	14346
319	14348
320	14350
320	14352
322	14354
322	14356
324	14358
323	14360
324	14362
324	14364
324	14366
324	14368
324	14370
324	14372
322	14374
323	14376
323	14379
322	14381
322	14383
321	14385
320	14387
320	14389
319	14391
318	14393
317	14395
317	14397
316	14399
317	14401
315	14403
316	14405
313	14407
312	14409
309	14411
310	14413
309	14415
308	14417
308	14419
307	14422
307	14424
306	14426
305	14428
304	14430
303	14432
303	14434
300	14436
301	14438
303	14440
300	14442
299	14444
297	14446
298	14448
298	14450
297	14452
297	14454
296	14456
295	14458
294	14460
294	14462
293	14464
293	14466
291	14468
292	14470
291	14472
291	14474
290	14476
290	14478
289	14480
289	14482
288	14484
288	14486
290	14488
288	14490
287	14492
288	14494
286	14496
286	14498
286	14500
286	14502
286	14504
285	14507
285	14509
285	14511
285	14513
285	14515
285	14517
284	14519
285	14521
285	14523
285	14525
286	14527
285	14529
285	14531
284	14533
286	14535
286	14537
286	14539
287	14541
286	14543
287	14545
287	14547
289	14550
286	14552
288	14554
288	14556
290	14558
289	14560
290	14562
290	14564
289	14566
291	14568
291	14570
292	14572
292	14574
292	14576
293	14578
296	14580
294	14582
294	14584
295	14586
295	14588
295	14590
296	14592
296	14594
296	14596
296	14598
296	14600
296	14602
296	14604
294	14606
296	14608
296	14610
296	14612
293	14614
295	14616
295	14618
295	14620
295	14622
294	14624
294	14626
293	14628
293	14630
292	14632
292	14635
294	14637
292	14639
292	14641
294	14643
292	14645
292	14647
291	14649
293	14651
291	14653
290	14655
290	14657
290	14659
290	14661
290	14663
291	14665
289	14667
288	14669
289	14671
288	14673
288	14675
289	14678
291	14680
293	14682
296	14684
301	14686
306	14688
313	14690
321	14692
330	14694
339	14696
348	14698
355	14700
363	14702
369	14704
374	14706
377	14708
378	14710
377	14712
375	14714
373	14716
369	14718
368	14720
365	14722
361	14724
358	14726
354	14728
350	14730
346	14732
342	14734
339	14736
336	14738
332	14740
329	14742
326	14744
325	14746
320	14748
317	14750
314	14752
312	14754
311	14756
306	14758
304	14760
302	14763
300	14765
298	14767
296	14769
294	14771
294	14773
291	14775
290	14777
288	14779
287	14781
286	14783
285	14785
283	14787
283	14789
284	14791
281	14793
281	14795
280	14797
280	14799
279	14801
279	14803
279	14806
278	14808
278	14810
278	14812
278	14814
277	14816
278	14818
279	14820
279	14822
279	14824
279	14826
279	14828
279	14830
280	14832
280	14834
281	14836
281	14838
284	14840
282	14842
283	14844
285	14846
282	14848
285	14850
286	14852
287	14854
285	14856
288	14858
289	14860
290	14862
292	14864
293	14866
294	14868
295	14870
296	14872
298	14874
299	14876
301	14878
302	14880
304	14882
305	14884
307	14886
308	14888
309	14891
311	14893
312	14895
315	14897
315	14899
316	14901
317	14903
318	14905
319	14907
320	14909
320	14911
321	14913
322	14915
322	14917
323	14919
323	14921
323	14923
324	14925
324	14927
323	14929
324	14931
323	14934
323	14936
322	14938
324	14940
321	14942
321	14944
322	14946
319	14948
318	14950
318	14952
317	14954
316	14956
316	14958
315	14960
314	14962
313	14964
312	14966
312	14968
311	14970
310	14972
309	14974
309	14976
308	14978
309	14980
306	14982
305	14984
304	14986
303	14988
303	14990
300	14992
301	14994
298	14996
299	14998
298	15000
296	15002
297	15004
296	15006
296	15008
295	15010
295	15012
294	15014
292	15016
293	15019
293	15021
292	15023
291	15025
291	15027
290	15029
291	15031
290	15033
289	15035
289	15037
289	15039
286	15041
288	15043
288	15045
287	15047
287	15049
287	15051
286	15053
286	15055
286	15057
286	15059
286	15062
284	15064
285	15066
287	15068
285	15070
285	15072
285	15074
285	15076
284	15078
284	15080
284	15082
284	15084
284	15086
284	15088
284	15090
284	15092
285	15094
284	15096
285	15098
285	15100
285	15102
285	15104
285	15106
286	15108
288	15110
286	15112
287	15114
287	15116
286	15118
288	15120
288	15122
289	15124
288	15126
289	15128
290	15130
290	15132
291	15134
291	15136
292	15138
293	15140
293	15142
294	15144
295	15147
295	15149
297	15151
296	15153
298	15155
296	15157
296	15159
296	15161
296	15163
296	15165
296	15167
296	15169
296	15171
296	15173
295	15175
295	15177
295	15179
295	15181
294	15183
294	15185
294	15187
293	15190
292	15192
293	15194
293	15196
290	15198
292	15200
292	15202
292	15204
292	15206
291	15208
291	15210
291	15212
291	15214
291	15216
291	15218
291	15220
291	15222
290	15224
290	15226
290	15228
289	15230
290	15232
290	15234
289	15236
290	15238
289	15240
289	15242
290	15244
292	15246
292	15248
300	15250
303	15252
309	15254
317	15256
325	15258
334	15260
342	15262
351	15264
358	15266
365	15268
370	15270
374	15272
375	15275
375	15277
374	15279
371	15281
370	15283
366	15285
363	15287
359	15289
355	15291
352	15293
349	15295
345	15297
341	15299
338	15301
335	15303
332	15305
329	15307
325	15309
323	15311
320	15313
317	15315
314	15318
309	15320
309	15322
307	15324
304	15326
303	15328
300	15330
299	15332
297	15334
295	15336
293	15338
291	15340
290	15342
289	15344
287	15346
286	15348
284	15350
284	15352
283	15354
283	15356
282	15358
281	15360
280	15362
280	15364
278	15366
279	15368
278	15370
279	15372
279	15374
277	15376
279	15378
279	15380
279	15382
279	15384
279	15386
279	15388
279	15390
280	15392
280	15394
280	15396
283	15398
283	15400
282	15403
283	15405
283	15407
283	15409
284	15411
286	15413
286	15415
287	15417
287	15419
288	15421
290	15423
290	15425
291	15427
292	15429
294	15431
295	15433
296	15435
299	15437
299	15439
300	15441
302	15443
303	15446
304	15448
303	15450
307	15452
308	15454
310	15456
311	15458
312	15460
314	15462
315	15464
316	15466
317	15468
318	15470
319	15472
320	15474
321	15476
322	15478
322	15480
323	15482
324	15484
326	15486
324	15488
325	15490
324	15492
324	15494
324	15496
324	15498
323	15500
323	15502
323	15504
322	15506
322	15508
321	15510
321	15512
320	15514
320	15516
319	15518
318	15520
317	15522
316	15524
315	15526
314	15528
313	15531
313	15533
311	15535
309	15537
310	15539
309	15541
307	15543
307	15545
306	15547
305	15549
305	15551
304	15553
303	15555
303	15557
302	15559
300	15561
298	15563
299	15565
298	15567
298	15569
297	15571
296	15574
295	15576
296	15578
294	15580
293	15582
293	15584
292	15586
292	15588
291	15590
291	15592
291	15594
290	15596
290	15598
289	15600
289	15602
288	15604
286	15606
288	15608
288	15610
290	15612
287	15614
287	15616
287	15618
287	15620
286	15622
286	15624
284	15626
286	15628
287	15630
286	15632
285	15634
285	15636
285	15638
285	15640
286	15642
285	15644
285	15646
285	15648
286	15650
286	15652
286	15654
286	15656
287	15659
287	15661
286	15663
288	15665
286	15667
288	15669
286	15671
288	15673
288	15675
288	15677
291	15679
288	15681
290	15683
290	15685
291	15687
291	15689
292	15691
292	15693
293	15695
294	15697
294	15699
294	15702
294	15704
295	15706
295	15708
296	15710
295	15712
294	15714
295	15716
295	15718
295	15720
293	15722
295	15724
295	15726
294	15728
294	15730
294	15732
294	15734
293	15736
293	15738
293	15740
293	15742
293	15744
291	15746
292	15748
292	15750
291	15752
291	15754
291	15756
291	15758
292	15760
292	15762
290	15764
290	15766
290	15768
290	15770
289	15772
289	15774
290	15776
289	15778
289	15780
288	15782
288	15784
287	15787
287	15789
288	15791
289	15793
294	15795
295	15797
299	15799
304	15801
311	15803
317	15805
327	15807
335	15809
345	15811
353	15813
360	15815
365	15817
371	15819
371	15821
372	15823
370	15825
366	15827
365	15830
362	15832
359	15834
355	15836
352	15838
348	15840
344	15842
341	15844
338	15846
334	15848
332	15850
328	15852
325	15854
322	15856
320	15858
317	15860
314	15862
312	15864
309	15866
307	15868
305	15870
304	15872
302	15874
300	15876
298	15878
295	15880
295	15882
291	15884
292	15886
290	15888
289	15890
289	15892
287	15894
286	15896
285	15898
284	15900
282	15902
283	15904
282	15906
282	15908
281	15910
282	15912
280	15915
280	15917
280	15919
280	15921
280	15923
280	15925
280	15927
280	15929
280	15931
281	15933
281	15935
281	15937
282	15939
282	15941
285	15943
283	15945
283	15947
284	15949
284	15951
285	15953
286	15955
286	15958
289	15960
288	15962
289	15964
289	15966
290	15968
291	15970
294	15972
293	15974
294	15976
295	15978
296	15980
298	15982
299	15984
300	15986
301	15988
303	15990
304	15992
306	15994
307	15996
308	15998
309	16000
311	16002
312	16004
313	16006
315	16008
316	16010
315	16012
318	16014
317	16016
320	16018
321	16020
322	16022
323	16024
324	16026
324	16028
325	16030
325	16032
326	16034
326	16036
326	16038
328	16040
326	16043
326	16045
325	16047
327	16049
324	16051
324	16053
324	16055
323	16057
323	16059
321	16061
320	16063
320	16065
319	16067
318	16069
317	16071
316	16073
315	16075
314	16077
315	16079
313	16081
312	16083
311	16086
310	16088
309	16090
308	16092
307	16094
307	16096
305	16098
304	16100
303	16102
302	16104
302	16106
301	16108
300	16110
299	16112
299	16114
298	16116
297	16118
299	16120
296	16122
295	16124
295	16126
295	16128
294	16130
293	16132
293	16134
292	16136
291	16138
291	16140
289	16142
292	16144
290	16146
289	16148
289	16150
288	16152
288	16154
288	16156
288	16158
287	16160
287	16162
286	16164
286	16166
286	16168
286	16171
286	16173
285	16175
285	16177
285	16179
285	16181
285	16183
283	16185
285	16187
283	16189
285	16191
285	16193
285	16195
285	16197
286	16199
286	16201
286	16203
286	16205
287	16207
286	16209
286	16211
288	16214
288	16216
290	16218
289	16220
288	16222
291	16224
291	16226
291	16228
292	16230
293	16232
293	16234
294	16236
294	16238
294	16240
294	16242
294	16244
295	16246
295	16248
295	16250
295	16252
295	16254
295	16256
295	16258
295	16260
295	16262
293	16264
294	16266
294	16268
293	16270
293	16272
292	16274
292	16276
291	16278
291	16280
291	16282
290	16284
290	16286
290	16288
290	16290
290	16292
290	16294
289	16296
291	16299
289	16301
289	16303
289	16305
291	16307
289	16309
289	16311
289	16313
289	16315
289	16317
288	16319
288	16321
288	16323
287	16325
287	16327
288	16329
289	16331
292	16333
295	16335
300	16337
305	16339
311	16342
321	16344
328	16346
337	16348
344	16350
353	16352
360	16354
365	16356
369	16358
371	16360
372	16362
369	16364
369	16366
367	16368
363	16370
360	16372
355	16374
353	16376
350	16378
346	16380
342	16382
341	16384
337	16386
334	16388
331	16390
328	16392
325	16394
322	16396
319	16398
316	16400
314	16402
311	16404
308	16406
304	16408
304	16410
302	16412
300	16414
298	16416
295	16418
294	16420
293	16422
291	16424
291	16427
289	16429
288	16431
287	16433
288	16435
285	16437
284	16439
284	16441
282	16443
281	16445
281	16447
280	16449
279	16451
279	16453
278	16455
277	16457
278	16459
276	16461
278	16463
278	16465
278	16467
278	16470
279	16472
279	16474
279	16476
280	16478
278	16480
280	16482
281	16484
281	16486
281	16488
282	16490
282	16492
283	16494
284	16496
285	16498
284	16500
286	16502
287	16504
286	16506
290	16508
289	16510
290	16512
291	16514
292	16516
293	16518
294	16520
296	16522
298	16524
298	16526
300	16528
301	16530
303	16532
304	16534
306	16536
306	16538
307	16540
309	16542
312	16544
311	16546
312	16548
314	16550
314	16552
316	16555
317	16557
319	16559
319	16561
319	16563
321	16565
322	16567
322	16569
322	16571
322	16573
323	16575
323	16577
323	16579
323	16581
324	16583
322	16585
322	16587
321	16589
321	16591
320	16593
320	16595
320	16598
319	16600
318	16602
316	16604
315	16606
317	16608
314	16610
314	16612
313	16614
313	16616
309	16618
311	16620
310	16622
308	16624
309	16626
308	16628
308	16630
307	16632
306	16634
307	16636
305	16638
304	16640
303	16642
303	16644
302	16646
301	16648
300	16650
300	16652
299	16654
299	16656
298	16658
297	16660
297	16662
296	16664
295	16666
295	16668
294	16670
294	16672
293	16674
293	16676
294	16678
292	16680
292	16683
291	16685
291	16687
290	16689
290	16691
290	16693
289	16695
289	16697
288	16699
288	16701
288	16703
288	16705
286	16707
287	16709
287	16711
287	16713
285	16715
287	16717
287	16719
287	16721
287	16723
287	16726
288	16728
287	16730
286	16732
286	16734
288	16736
288	16738
288	16740
288	16742
289	16744
289	16746
289	16748
289	16750
287	16752
290	16754
290	16756
291	16758
291	16760
292	16762
292	16764
293	16766
293	16768
294	16770
294	16772
295	16774
295	16776
295	16778
295	16780
295	16782
295	16784
295	16786
294	16788
294	16790
294	16792
294	16794
294	16796
293	16798
293	16800
293	16802
293	16804
292	16806
292	16808
291	16811
291	16813
290	16815
290	16817
289	16819
289	16821
289	16823
288	16825
288	16827
288	16829
288	16831
288	16833
288	16835
287	16837
288	16839
288	16841
286	16843
288	16845
288	16847
288	16849
287	16851
287	16854
286	16856
286	16858
287	16860
287	16862
287	16864
291	16866
294	16868
298	16870
304	16872
310	16874
318	16876
326	16878
335	16880
344	16882
352	16884
358	16886
364	16888
368	16890
371	16892
372	16894
371	16896
370	16898
367	16900
365	16902
362	16904
357	16906
355	16908
351	16910
348	16912
344	16914
340	16916
337	16918
334	16920
333	16922
327	16924
325	16926
322	16928
319	16930
318	16932
313	16934
311	16936
309	16939
306	16941
304	16943
300	16945
299	16947
297	16949
295	16951
294	16953
292	16955
291	16957
290	16959
289	16961
288	16963
286	16965
285	16967
284	16969
284	16971
283	16973
282	16975
281	16977
283	16979
280	16982
279	16984
279	16986
279	16988
279	16990
279	16992
279	16994
279	16996
279	16998
279	17000
277	17002
280	17004
279	17006
280	17008
279	17010
280	17012
281	17014
281	17016
282	17018
282	17020
282	17022
282	17024
283	17026
284	17028
282	17030
285	17032
286	17034
288	17036
287	17038
288	17040
289	17042
290	17044
291	17046
292	17048
293	17050
295	17052
296	17054
297	17056
298	17058
299	17060
301	17062
303	17064
304	17067
305	17069
307	17071
308	17073
310	17075
311	17077
312	17079
314	17081
314	17083
317	17085
317	17087
319	17089
320	17091
320	17093
320	17095
322	17097
322	17099
323	17101
323	17103
323	17105
326	17107
323	17110
323	17112
323	17114
324	17116
323	17118
323	17120
323	17122
323	17124
322	17126
321	17128
321	17130
320	17132
319	17134
319	17136
318	17138
317	17140
318	17142
315	17144
314	17146
313	17148
312	17150
312	17152
311	17154
310	17156
309	17158
309	17160
308	17162
307	17164
306	17166
306	17168
305	17170
304	17172
302	17174
303	17176
302	17178
302	17180
301	17182
302	17184
299	17186
299	17188
297	17190
298	17192
297	17195
295	17197
297	17199
296	17201
295	17203
295	17205
293	17207
294	17209
292	17211
292	17213
292	17215
292	17217
292	17219
291	17221
291	17223
291	17225
290	17227
290	17229
290	17231
291	17233
289	17235
288	17238
289	17240
287	17242
289	17244
289	17246
287	17248
289	17250
289	17252
289	17254
289	17256
289	17258
289	17260
289	17262
289	17264
290	17266
290	17268
290	17270
290	17272
291	17274
291	17276
291	17278
292	17280
292	17282
292	17284
293	17286
293	17288
293	17290
296	17292
294	17294
294	17296
294	17298
295	17300
295	17302
297	17304
295	17306
297	17308
295	17310
295	17312
295	17314
295	17316
294	17318
294	17320
296	17323
293	17325
293	17327
293	17329
290	17331
292	17333
291	17335
289	17337
290	17339
290	17341
291	17343
289	17345
289	17347
289	17349
289	17351
289	17353
288	17355
288	17357
288	17359
288	17361
288	17363
286	17366
288	17368
287	17370
287	17372
287	17374
286	17376
286	17378
284	17380
286	17382
287	17384
286	17386
292	17388
294	17390
298	17392
304	17394
310	17396
318	17398
327	17400
336	17402
345	17404
353	17406
357	17408
364	17410
369	17412
372	17414
377	17416
374	17418
373	17420
371	17422
368	17424
365	17426
362	17428
358	17430
354	17432
351	17434
347	17436
343	17438
339	17440
336	17442
333	17444
330	17446
326	17448
323	17451
320	17453
317	17455
315	17457
310	17459
309	17461
306	17463
304	17465
302	17467
299	17469
298	17471
296	17473
294	17475
292	17477
290	17479
289	17481
288	17483
286	17485
286	17487
284	17489
282	17491
281	17494
281	17496
280	17498
280	17500
278	17502
278	17504
277	17506
278	17508
277	17510
276	17512
276	17514
276	17516
276	17518
276	17520
276	17522
276	17524
276	17526
275	17528
277	17530
277	17532
278	17534
278	17536
278	17538
279	17540
279	17542
280	17544
280	17546
280	17548
281	17550
281	17552
282	17554
283	17556
284	17558
284	17560
285	17562
286	17564
287	17566
288	17568
289	17570
290	17572
292	17574
293	17576
294	17579
296	17581
296	17583
298	17585
299	17587
300	17589
300	17591
303	17593
305	17595
307	17597
308	17599
310	17601
311	17603
312	17605
313	17607
314	17609
315	17611
316	17613
317	17615
318	17617
318	17619
319	17622
318	17624
320	17626
320	17628
320	17630
320	17632
320	17634
321	17636
320	17638
320	17640
319	17642
319	17644
320	17646
318	17648
315	17650
317	17652
316	17654
316	17656
315	17658
314	17660
313	17662
313	17664
313	17666
312	17668
313	17670
309	17672
310	17674
309	17676
308	17678
308	17680
306	17682
306	17684
306	17686
305	17688
304	17690
304	17692
303	17694
305	17696
302	17698
301	17700
300	17702
300	17704
299	17707
301	17709
298	17711
300	17713
297	17715
297	17717
296	17719
295	17721
295	17723
294	17725
292	17727
293	17729
293	17731
293	17733
292	17735
292	17737
291	17739
291	17741
291	17743
290	17745
290	17747
290	17750
290	17752
290	17754
290	17756
290	17758
288	17760
290	17762
290	17764
290	17766
290	17768
291	17770
290	17772
291	17774
291	17776
291	17778
291	17780
291	17782
291	17784
291	17786
291	17788
292	17790
292	17792
290	17794
293	17796
295	17798
293	17800
294	17802
294	17804
294	17806
295	17808
295	17810
295	17812
295	17814
295	17816
295	17818
295	17820
294	17822
297	17824
293	17826
293	17828
294	17830
294	17832
293	17835
293	17837
293	17839
292	17841
292	17843
292	17845
291	17847
291	17849
291	17851
291	17853
291	17855
290	17857
290	17859
290	17861
289	17863
289	17865
289	17867
288	17869
288	17871
288	17873
288	17875
288	17878
287	17880
288	17882
287	17884
287	17886
287	17888
286	17890
288	17892
284	17894
286	17896
286	17898
288	17900
291	17902
295	17904
300	17906
307	17908
314	17910
323	17912
332	17914
341	17916
350	17918
354	17920
361	17922
368	17924
372	17926
376	17928
377	17930
377	17932
375	17934
373	17936
370	17938
367	17940
363	17942
360	17944
356	17946
352	17948
348	17950
344	17952
341	17954
337	17956
336	17958
331	17960
328	17963
324	17965
321	17967
318	17969
313	17971
312	17973
309	17975
306	17977
304	17979
302	17981
297	17983
297	17985
295	17987
294	17989
292	17991
291	17993
289	17995
289	17997
286	17999
285	18001
284	18003
283	18006
282	18008
281	18010
280	18012
280	18014
278	18016
278	18018
278	18020
277	18022
276	18024
276	18026
276	18028
276	18030
276	18032
275	18034
275	18036
275	18038
276	18040
276	18042
276	18044
277	18046
276	18048
278	18050
278	18052
278	18054
279	18056
279	18058
279	18060
280	18062
281	18064
281	18066
282	18068
282	18070
284	18072
285	18074
286	18076
287	18078
288	18080
289	18082
290	18084
291	18086
292	18088
294	18091
297	18093
296	18095
298	18097
299	18099
300	18101
302	18103
303	18105
305	18107
306	18109
307	18111
309	18113
310	18115
311	18117
312	18119
313	18121
314	18123
315	18125
316	18127
317	18129
318	18131
318	18134
318	18136
319	18138
319	18140
319	18142
319	18144
319	18146
319	18148
319	18150
321	18152
320	18154
319	18156
318	18158
318	18160
317	18162
317	18164
316	18166
316	18168
315	18170
314	18172
314	18174
313	18176
313	18178
312	18180
311	18182
310	18184
310	18186
309	18188
308	18190
307	18192
307	18194
308	18196
305	18198
305	18200
304	18202
303	18204
304	18206
303	18208
301	18210
301	18212
300	18214
300	18216
299	18219
299	18221
296	18223
297	18225
297	18227
298	18229
296	18231
295	18233
294	18235
294	18237
293	18239
293	18241
292	18243
292	18245
289	18247
290	18249
291	18251
291	18253
291	18255
290	18257
290	18259
290	18262
290	18264
290	18266
292	18268
290	18270
292	18272
290	18274
291	18276
290	18278
290	18280
290	18282
291	18284
288	18286
292	18288
291	18290
291	18292
291	18294
292	18296
291	18298
292	18300
292	18302
292	18304
293	18306
293	18308
293	18310
294	18312
294	18314
294	18316
294	18318
294	18320
295	18322
294	18324
295	18326
296	18328
295	18330
294	18332
294	18334
294	18336
296	18338
294	18340
294	18342
294	18344
293	18347
292	18349
292	18351
292	18353
292	18355
291	18357
291	18359
290	18361
290	18363
290	18365
290	18367
289	18369
289	18371
289	18373
289	18375
289	18377
290	18379
289	18381
288	18383
288	18385
288	18387
288	18390
288	18392
287	18394
287	18396
288	18398
286	18400
286	18402
286	18404
285	18406
285	18408
286	18410
288	18412
291	18414
295	18416
301	18418
307	18420
315	18422
324	18424
334	18426
343	18428
354	18430
356	18432
364	18434
369	18436
373	18438
376	18440
377	18442
377	18444
374	18446
372	18448
369	18450
366	18452
363	18454
359	18456
355	18458
351	18460
347	18462
343	18464
340	18466
336	18468
333	18470
329	18472
326	18475
322	18477
319	18479
316	18481
314	18483
313	18485
309	18487
307	18489
304	18491
302	18493
300	18495
297	18497
296	18499
294	18501
292	18503
290	18505
289	18507
286	18509
286	18511
285	18513
283	18515
281	18518
282	18520
281	18522
280	18524
281	18526
279	18528
278	18530
278	18532
277	18534
277	18536
277	18538
277	18540
276	18542
276	18544
276	18546
279	18548
275	18550
277	18552
276	18554
279	18556
277	18558
277	18560
278	18562
277	18564
278	18566
281	18568
279	18570
280	18572
280	18574
281	18576
281	18578
282	18580
282	18582
283	18584
284	18586
285	18588
287	18590
288	18592
289	18594
291	18596
292	18598
293	18600
292	18603
296	18605
299	18607
299	18609
300	18611
302	18613
305	18615
305	18617
306	18619
307	18621
308	18623
310	18625
311	18627
312	18629
313	18631
314	18633
315	18635
316	18637
317	18639
318	18641
317	18643
319	18646
319	18648
320	18650
318	18652
321	18654
320	18656
320	18658
320	18660
320	18662
320	18664
317	18666
319	18668
318	18670
318	18672
318	18674
317	18676
316	18678
316	18680
315	18682
314	18684
314	18686
314	18688
313	18690
312	18692
313	18694
310	18696
310	18698
309	18700
308	18702
307	18704
306	18706
306	18708
305	18710
304	18712
303	18714
303	18716
302	18718
302	18720
301	18722
298	18724
300	18726
299	18728
299	18731
298	18733
297	18735
297	18737
296	18739
296	18741
293	18743
295	18745
294	18747
292	18749
293	18751
293	18753
292	18755
291	18757
291	18759
291	18761
290	18763
290	18765
291	18767
289	18769
290	18771
289	18774
288	18776
290	18778
289	18780
289	18782
289	18784
289	18786
289	18788
289	18790
289	18792
289	18794
289	18796
287	18798
290	18800
288	18802
289	18804
287	18806
289	18808
290	18810
290	18812
292	18814
290	18816
291	18818
291	18820
291	18822
292	18824
292	18826
292	18828
293	18830
293	18832
293	18834
293	18836
294	18838
294	18840
294	18842
294	18844
294	18846
294	18848
293	18850
295	18852
293	18854
293	18856
293	18859
293	18861
293	18863
293	18865
292	18867
291	18869
291	18871
289	18873
290	18875
290	18877
289	18879
287	18881
289	18883
289	18885
289	18887
289	18889
289	18891
288	18893
288	18895
288	18897
288	18899
288	18902
288	18904
288	18906
287	18908
287	18910
288	18912
285	18914
286	18916
286	18918
285	18920
285	18922
286	18924
285	18926
290	18928
294	18930
298	18932
304	18934
311	18936
320	18938
329	18940
339	18942
343	18944
353	18946
360	18948
367	18950
371	18952
375	18954
375	18956
376	18958
374	18960
373	18962
370	18964
368	18966
364	18968
360	18970
356	18972
353	18974
349	18976
345	18978
342	18980
338	18982
335	18984
331	18987
326	18989
324	18991
321	18993
318	18995
315	18997
312	18999
309	19001
307	19003
305	19005
302	19007
300	19009
300	19011
296	19013
294	19015
293	19017
291	19019
289	19021
288	19023
287	19025
285	19027
284	19030
283	19032
282	19034
280	19036
280	19038
279	19040
279	19042
276	19044
278	19046
277	19048
277	19050
277	19052
277	19054
277	19056
276	19058
276	19060
276	19062
277	19064
277	19066
276	19068
277	19070
277	19072
279	19074
278	19076
280	19078
278	19080
279	19082
279	19084
280	19086
281	19088
281	19090
282	19092
283	19094
284	19096
284	19098
284	19100
286	19102
288	19104
288	19106
290	19108
291	19110
291	19112
293	19115
294	19117
296	19119
297	19121
298	19123
299	19125
301	19127
302	19129
304	19131
305	19133
307	19135
308	19137
311	19139
311	19141
314	19143
312	19145
314	19147
315	19149
316	19151
317	19153
318	19155
319	19158
319	19160
320	19162
320	19164
321	19166
321	19168
321	19170
321	19172
321	19174
323	19176
321	19178
320	19180
320	19182
320	19184
320	19186
319	19188
318	19190
318	19192
317	19194
317	19196
316	19198
316	19200
315	19202
315	19204
314	19206
312	19208
311	19210
311	19212
310	19214
309	19216
309	19218
307	19220
307	19222
306	19224
305	19226
304	19228
303	19230
303	19232
302	19234
301	19236
301	19238
300	19240
301	19243
299	19245
298	19247
298	19249
297	19251
298	19253
296	19255
295	19257
295	19259
294	19261
293	19263
293	19265
293	19267
290	19269
292	19271
291	19273
291	19275
291	19277
290	19279
290	19281
290	19283
289	19286
291	19288
289	19290
288	19292
288	19294
289	19296
287	19298
285	19300
287	19302
287	19304
286	19306
286	19308
287	19310
286	19312
287	19314
287	19316
287	19318
287	19320
287	19322
289	19324
288	19326
286	19328
288	19330
288	19332
288	19334
289	19336
289	19338
290	19340
290	19342
290	19344
290	19346
291	19348
292	19350
293	19352
291	19354
293	19356
293	19358
291	19360
294	19362
294	19364
294	19366
294	19368
294	19371
295	19373
294	19375
294	19377
294	19379
294	19381
294	19383
293	19385
293	19387
293	19389
292	19391
292	19393
292	19395
292	19397
292	19399
291	19401
291	19403
291	19405
291	19407
290	19409
288	19411
290	19414
289	19416
290	19418
289	19420
291	19422
289	19424
289	19426
289	19428
289	19430
289	19432
289	19434
288	19436
289	19438
288	19440
288	19442
285	19444
287	19446
287	19448
287	19450
287	19452
289	19454
290	19456
293	19458
299	19460
302	19462
307	19464
316	19466
324	19468
333	19470
340	19472
349	19474
359	19476
365	19478
370	19480
374	19482
375	19484
375	19486
374	19488
372	19490
371	19492
367	19494
364	19496
360	19499
356	19501
352	19503
348	19505
345	19507
341	19509
338	19511
335	19513
331	19515
328	19517
325	19519
322	19521
317	19523
316	19525
313	19527
310	19529
308	19531
305	19533
303	19535
301	19537
298	19539
297	19542
295	19544
293	19546
292	19548
290	19550
288	19552
288	19554
285	19556
284	19558
283	19560
282	19562
281	19564
280	19566
280	19568
279	19570
278	19572
278	19574
277	19576
277	19578
277	19580
276	19582
276	19584
278	19586
276	19588
275	19590
276	19592
275	19594
277	19596
275	19598
277	19600
277	19602
278	19604
278	19606
278	19608
279	19610
277	19612
279	19614
280	19616
281	19618
282	19620
282	19622
283	19624
284	19627
285	19629
286	19631
287	19633
288	19635
290	19637
290	19639
291	19641
292	19643
294	19645
295	19647
297	19649
298	19651
299	19653
301	19655
302	19657
304	19659
305	19661
308	19663
308	19665
309	19667
310	19670
312	19672
312	19674
314	19676
315	19678
316	19680
317	19682
318	19684
318	19686
319	19688
320	19690
320	19692
321	19694
321	19696
321	19698
321	19700
321	19702
321	19704
321	19706
321	19708
320	19710
320	19712
320	19714
320	19716
319	19718
319	19720
318	19722
317	19724
317	19726
316	19728
315	19730
315	19732
314	19734
313	19736
310	19738
310	19740
311	19742
310	19744
309	19746
308	19748
307	19750
306	19752
306	19755
305	19757
304	19759
303	19761
303	19763
302	19765
302	19767
300	19769
300	19771
299	19773
299	19775
298	19777
297	19779
296	19781
295	19783
295	19785
294	19787
294	19789
293	19791
293	19793
292	19795
292	19798
292	19800
291	19802
291	19804
291	19806
290	19808
290	19810
290	19812
290	19814
289	19816
289	19818
289	19820
289	19822
288	19824
288	19826
288	19828
287	19830
287	19832
287	19834
285	19836
287	19838
286	19840
287	19842
286	19844
288	19846
286	19848
284	19850
286	19852
286	19854
287	19856
287	19858
287	19860
287	19862
287	19864
287	19866
288	19868
288	19870
288	19872
288	19874
288	19876
288	19878
289	19880
289	19883
290	19885
291	19887
291	19889
292	19891
293	19893
293	19895
293	19897
294	19899
294	19901
294	19903
296	19905
295	19907
295	19909
295	19911
295	19913
295	19915
295	19917
294	19919
294	19921
294	19923
294	19926
294	19928
293	19930
295	19932
293	19934
292	19936
292	19938
292	19940
291	19942
291	19944
291	19946
291	19948
290	19950
290	19952
290	19954
288	19956
289	19958
289	19960
289	19962
289	19964
289	19966
289	19968
288	19970
288	19972
288	19974
288	19976
288	19978
288	19980
286	19982
287	19984
287	19986
288	19988
289	19990
291	19992
294	19994
298	19996
303	19998
310	20000
317	20002
326	20004
335	20006
343	20008
352	20011
359	20013
365	20015
369	20017
373	20019
372	20021
371	20023
369	20025
366	20027
362	20029
360	20031
356	20033
353	20035
349	20037
345	20039
341	20041
338	20043
334	20045
331	20047
328	20049
325	20051
323	20054
319	20056
316	20058
311	20060
312	20062
309	20064
307	20066
304	20068
303	20070
300	20072
299	20074
297	20076
295	20078
294	20080
292	20082
291	20084
290	20086
289	20088
288	20090
287	20092
286	20094
285	20096
284	20098
284	20100
283	20102
282	20104
281	20106
280	20108
280	20110
280	20112
279	20114
279	20116
279	20118
279	20120
279	20122
279	20124
279	20126
279	20128
279	20130
280	20132
280	20134
280	20136
280	20139
283	20141
281	20143
281	20145
282	20147
282	20149
283	20151
286	20153
284	20155
285	20157
288	20159
286	20161
286	20163
288	20165
289	20167
290	20169
291	20171
293	20173
294	20175
295	20177
297	20179
298	20182
299	20184
299	20186
303	20188
306	20190
305	20192
305	20194
308	20196
310	20198
311	20200
314	20202
314	20204
315	20206
316	20208
317	20210
318	20212
319	20214
319	20216
321	20218
322	20220
323	20222
323	20224
324	20226
324	20228
325	20230
323	20232
325	20234
326	20236
326	20238
328	20240
325	20242
325	20244
325	20246
324	20248
324	20250
323	20252
322	20254
322	20256
321	20258
320	20260
319	20262
319	20264
318	20267
317	20269
316	20271
315	20273
314	20275
313	20277
312	20279
311	20281
309	20283
311	20285
309	20287
307	20289
307	20291
306	20293
306	20295
305	20297
303	20299
303	20301
302	20303
302	20305
300	20307
300	20310
299	20312
298	20314
298	20316
297	20318
296	20320
295	20322
295	20324
294	20326
294	20328
293	20330
293	20332
292	20334
291	20336
291	20338
290	20340
290	20342
290	20344
290	20346
290	20348
289	20350
289	20352
289	20354
289	20356
288	20358
288	20360
288	20362
287	20364
287	20366
287	20368
286	20370
286	20372
286	20374
286	20376
286	20378
286	20380
286	20382
288	20384
288	20386
286	20388
286	20390
287	20392
287	20395
287	20397
287	20399
287	20401
288	20403
288	20405
288	20407
289	20409
290	20411
287	20413
290	20415
290	20417
292	20419
291	20421
291	20423
292	20425
292	20427
292	20429
293	20431
293	20433
293	20435
294	20438
294	20440
295	20442
295	20444
295	20446
295	20448
295	20450
295	20452
295	20454
293	20456
295	20458
295	20460
295	20462
295	20464
294	20466
296	20468
293	20470
293	20472
293	20474
293	20476
293	20478
293	20480
292	20482
292	20484
292	20486
291	20488
291	20490
290	20492
291	20494
291	20496
292	20498
290	20500
290	20502
290	20504
292	20506
290	20508
289	20510
289	20512
289	20514
289	20516
289	20518
288	20520
288	20523
289	20525
287	20527
288	20529
289	20531
293	20533
295	20535
299	20537
306	20539
311	20541
318	20543
327	20545
336	20547
345	20549
354	20551
360	20553
365	20555
369	20557
372	20559
372	20561
371	20563
369	20566
367	20568
367	20570
361	20572
358	20574
355	20576
351	20578
347	20580
344	20582
340	20584
337	20586
333	20588
330	20590
327	20592
324	20594
321	20596
318	20598
315	20600
312	20602
310	20604
307	20606
306	20608
304	20610
302	20612
299	20614
297	20616
295	20618
293	20620
292	20622
290	20624
289	20626
288	20628
287	20630
285	20632
283	20634
284	20636
283	20638
282	20640
281	20642
281	20644
280	20646
280	20648
279	20651
279	20653
279	20655
278	20657
279	20659
279	20661
278	20663
279	20665
278	20667
279	20669
279	20671
279	20673
279	20675
279	20677
280	20679
280	20681
281	20683
281	20685
281	20687
281	20689
280	20691
283	20694
286	20696
284	20698
285	20700
285	20702
286	20704
287	20706
287	20708
288	20710
291	20712
290	20714
291	20716
293	20718
294	20720
295	20722
296	20724
298	20726
300	20728
301	20730
303	20732
304	20734
307	20736
306	20738
308	20740
309	20742
310	20744
310	20746
311	20748
314	20750
316	20752
317	20754
318	20756
319	20758
320	20760
320	20762
321	20764
321	20766
322	20768
323	20770
323	20772
323	20774
323	20776
323	20779
323	20781
323	20783
323	20785
324	20787
321	20789
321	20791
321	20793
320	20795
319	20797
319	20799
318	20801
317	20803
316	20805
316	20807
315	20809
314	20811
313	20813
312	20815
312	20817
311	20819
310	20822
309	20824
310	20826
307	20828
307	20830
306	20832
306	20834
305	20836
304	20838
304	20840
303	20842
302	20844
302	20846
301	20848
299	20850
298	20852
299	20854
298	20856
298	20858
297	20860
296	20862
296	20864
296	20866
295	20868
294	20870
294	20872
295	20874
292	20876
292	20878
292	20880
291	20882
291	20884
291	20886
290	20888
290	20890
289	20892
290	20894
289	20896
289	20898
288	20900
288	20902
288	20904
287	20907
287	20909
287	20911
286	20913
286	20915
286	20917
286	20919
286	20921
286	20923
286	20925
286	20927
286	20929
285	20931
285	20933
286	20935
285	20937
285	20939
285	20941
285	20943
283	20945
286	20947
286	20950
286	20952
286	20954
287	20956
287	20958
288	20960
287	20962
288	20964
289	20966
291	20968
290	20970
290	20972
291	20974
291	20976
291	20978
292	20980
292	20982
292	20984
292	20986
293	20988
294	20990
294	20992
294	20994
295	20996
297	20998
296	21000
297	21002
297	21004
297	21006
297	21008
297	21010
297	21012
297	21014
296	21016
297	21018
297	21020
297	21022
297	21024
296	21026
296	21028
296	21030
295	21032
295	21035
294	21037
294	21039
294	21041
294	21043
293	21045
294	21047
293	21049
293	21051
293	21053
292	21055
292	21057
292	21059
294	21061
292	21063
290	21065
292	21067
291	21069
293	21071
292	21073
292	21075
291	21078
291	21080
288	21082
290	21084
290	21086
290	21088
291	21090
293	21092
296	21094
300	21096
305	21098
310	21100
319	21102
325	21104
333	21106
342	21108
351	21110
359	21112
365	21114
371	21116
374	21118
378	21120
377	21122
377	21124
375	21126
375	21128
370	21130
366	21132
364	21134
359	21136
356	21138
352	21140
348	21142
347	21144
341	21146
338	21148
334	21150
331	21152
328	21154
325	21156
322	21158
319	21160
316	21163
314	21165
311	21167
309	21169
306	21171
304	21173
302	21175
300	21177
299	21179
297	21181
295	21183
294	21185
292	21187
291	21189
289	21191
288	21193
287	21195
286	21197
285	21199
284	21201
283	21203
280	21206
282	21208
281	21210
281	21212
280	21214
279	21216
279	21218
279	21220
278	21222
278	21224
278	21226
278	21228
278	21230
278	21232
279	21234
279	21236
279	21238
280	21240
281	21242
281	21244
281	21246
281	21248
282	21250
284	21252
281	21254
282	21256
284	21258
285	21260
287	21262
286	21264
287	21266
288	21268
288	21270
289	21272
290	21274
292	21276
293	21278
293	21280
295	21282
296	21284
298	21286
299	21288
300	21291
302	21293
303	21295
304	21297
306	21299
307	21301
308	21303
309	21305
309	21307
311	21309
313	21311
314	21313
315	21315
316	21317
317	21319
318	21321
319	21323
319	21325
320	21327
321	21329
321	21331
321	21334
321	21336
321	21338
321	21340
321	21342
321	21344
321	21346
321	21348
320	21350
320	21352
320	21354
320	21356
317	21358
317	21360
318	21362
318	21364
317	21366
317	21368
314	21370
315	21372
315	21374
314	21376
313	21378
313	21380
312	21382
311	21384
310	21386
309	21388
308	21390
308	21392
307	21394
306	21396
304	21398
305	21400
303	21402
303	21404
304	21406
301	21408
302	21410
301	21412
300	21414
299	21416
298	21419
298	21421
297	21423
297	21425
296	21427
295	21429
295	21431
295	21433
294	21435
292	21437
294	21439
293	21441
294	21443
292	21445
292	21447
292	21449
292	21451
291	21453
290	21455
290	21457
290	21459
290	21462
288	21464
289	21466
289	21468
289	21470
289	21472
289	21474
288	21476
286	21478
288	21480
290	21482
290	21484
288	21486
288	21488
288	21490
287	21492
287	21494
287	21496
287	21498
287	21500
287	21502
287	21504
287	21506
287	21508
287	21510
287	21512
287	21514
287	21516
287	21518
287	21520
287	21522
288	21524
288	21526
288	21528
289	21530
291	21532
290	21534
290	21536
291	21538
291	21540
293	21542
292	21544
293	21547
293	21549
295	21551
296	21553
295	21555
296	21557
296	21559
297	21561
297	21563
298	21565
298	21567
299	21569
297	21571
299	21573
300	21575
299	21577
299	21579
300	21581
299	21583
300	21585
299	21587
299	21590
297	21592
298	21594
298	21596
298	21598
298	21600
297	21602
297	21604
297	21606
296	21608
296	21610
296	21612
296	21614
295	21616
295	21618
292	21620
294	21622
294	21624
294	21626
293	21628
294	21630
293	21632
294	21634
293	21636
293	21638
293	21640
294	21642
292	21644
292	21646
292	21648
292	21650
293	21652
291	21654
290	21656
290	21658
291	21660
293	21662
296	21664
299	21666
304	21668
311	21670
315	21672
323	21675
332	21677
341	21679
352	21681
358	21683
365	21685
371	21687
375	21689
378	21691
377	21693
378	21695
376	21697
373	21699
370	21701
367	21703
364	21705
360	21707
356	21709
351	21711
349	21713
343	21715
342	21718
338	21720
335	21722
332	21724
328	21726
325	21728
322	21730
319	21732
316	21734
314	21736
311	21738
308	21740
306	21742
304	21744
302	21746
300	21748
298	21750
296	21752
296	21754
293	21756
291	21758
290	21760
289	21762
288	21764
286	21766
283	21768
284	21770
284	21772
282	21774
281	21776
281	21778
280	21780
280	21782
280	21784
279	21786
279	21788
279	21790
278	21792
279	21794
279	21796
279	21798
279	21800
279	21803
279	21805
281	21807
280	21809
280	21811
280	21813
279	21815
281	21817
281	21819
283	21821
284	21823
283	21825
285	21827
284	21829
284	21831
285	21833
288	21835
286	21837
287	21839
288	21841
289	21843
290	21846
291	21848
292	21850
293	21852
295	21854
296	21856
297	21858
298	21860
300	21862
301	21864
302	21866
305	21868
305	21870
307	21872
308	21874
309	21876
310	21878
312	21880
313	21882
314	21884
315	21886
316	21888
316	21890
318	21892
319	21894
318	21896
320	21898
320	21900
321	21902
321	21904
321	21906
322	21908
322	21910
322	21912
322	21914
322	21916
322	21918
321	21920
321	21922
320	21924
320	21926
320	21928
318	21931
318	21933
317	21935
316	21937
316	21939
315	21941
314	21943
313	21945
312	21947
312	21949
311	21951
310	21953
309	21955
309	21957
306	21959
307	21961
306	21963
306	21965
305	21967
305	21969
304	21971
303	21974
302	21976
301	21978
300	21980
300	21982
299	21984
299	21986
298	21988
297	21990
297	21992
296	21994
297	21996
295	21998
294	22000
294	22002
293	22004
293	22006
292	22008
292	22010
291	22012
291	22014
291	22016
291	22018
291	22020
290	22022
290	22024
289	22026
289	22028
289	22030
288	22032
290	22034
288	22036
288	22038
286	22040
287	22042
285	22044
287	22046
287	22048
288	22050
286	22052
286	22054
286	22056
286	22059
285	22061
285	22063
285	22065
285	22067
285	22069
284	22071
284	22073
284	22075
285	22077
284	22079
283	22081
284	22083
284	22085
284	22087
284	22089
284	22091
284	22093
285	22095
285	22097
286	22099
286	22102
289	22104
288	22106
288	22108
289	22110
289	22112
290	22114
290	22116
290	22118
291	22120
290	22122
292	22124
293	22126
293	22128
294	22130
294	22132
295	22134
295	22136
298	22138
297	22140
297	22142
299	22144
297	22146
297	22148
297	22150
297	22152
297	22154
297	22156
297	22158
297	22160
298	22162
296	22164
297	22166
296	22168
295	22170
295	22172
295	22174
294	22176
296	22178
294	22180
293	22182
293	22184
293	22187
293	22189
293	22191
292	22193
292	22195
292	22197
292	22199
292	22201
292	22203
292	22205
292	22207
292	22209
294	22211
291	22213
291	22215
291	22217
291	22219
289	22221
290	22223
290	22225
289	22227
289	22230
289	22232
290	22234
292	22236
294	22238
298	22240
302	22242
308	22244
316	22246
323	22248
332	22250
341	22252
350	22254
357	22256
364	22258
369	22260
372	22262
375	22264
375	22266
374	22268
372	22270
371	22272
368	22274
367	22276
361	22278
357	22280
353	22282
349	22284
346	22286
342	22288
339	22290
336	22292
332	22294
329	22296
326	22298
324	22300
319	22302
317	22304
313	22306
311	22308
307	22310
306	22312
303	22315
301	22317
300	22319
297	22321
295	22323
294	22325
292	22327
290	22329
291	22331
288	22333
286	22335
285	22337
284	22339
283	22341
282	22343
281	22345
280	22347
279	22349
279	22351
278	22353
279	22355
277	22358
276	22360
277	22362
277	22364
277	22366
277	22368
277	22370
277	22372
277	22374
277	22376
277	22378
278	22380
277	22382
279	22384
279	22386
280	22388
280	22390
280	22392
281	22394
281	22396
282	22398
282	22400
283	22402
283	22404
284	22406
285	22408
286	22410
287	22412
287	22414
288	22416
290	22418
290	22420
294	22422
292	22424
294	22426
295	22428
298	22430
298	22432
300	22434
301	22436
303	22438
304	22440
304	22443
307	22445
309	22447
310	22449
312	22451
313	22453
315	22455
316	22457
317	22459
318	22461
319	22463
320	22465
321	22467
321	22469
322	22471
323	22473
323	22475
323	22477
324	22479
323	22481
323	22483
323	22486
323	22488
323	22490
323	22492
323	22494
321	22496
321	22498
323	22500
321	22502
320	22504
319	22506
318	22508
318	22510
317	22512
314	22514
315	22516
314	22518
313	22520
313	22522
312	22524
311	22526
308	22528
310	22530
309	22532
308	22534
307	22536
306	22538
307	22540
305	22542
304	22544
303	22546
303	22548
302	22550
300	22552
298	22554
299	22556
298	22558
297	22560
296	22562
296	22564
294	22566
295	22568
294	22571
294	22573
293	22575
293	22577
292	22579
292	22581
291	22583
291	22585
288	22587
290	22589
289	22591
289	22593
288	22595
288	22597
287	22599
287	22601
287	22603
286	22605
286	22607
285	22609
285	22611
285	22614
286	22616
285	22618
285	22620
285	22622
284	22624
284	22626
284	22628
286	22630
284	22632
284	22634
284	22636
284	22638
284	22640
284	22642
284	22644
284	22646
284	22648
284	22650
283	22652
283	22654
285	22656
284	22658
284	22660
284	22662
284	22664
284	22666
287	22668
285	22670
285	22672
286	22674
286	22676
286	22678
287	22680
287	22682
288	22684
288	22686
288	22688
288	22690
289	22692
289	22694
290	22696
290	22699
291	22701
292	22703
292	22705
295	22707
293	22709
292	22711
295	22713
295	22715
296	22717
296	22719
296	22721
296	22723
296	22725
296	22727
296	22729
296	22731
296	22733
296	22735
296	22737
296	22739
296	22742
295	22744
295	22746
296	22748
294	22750
294	22752
294	22754
294	22756
293	22758
293	22760
292	22762
292	22764
292	22766
291	22768
291	22770
291	22772
289	22774
289	22776
291	22778
291	22780
291	22782
291	22784
291	22786
291	22788
291	22790
290	22792
290	22794
290	22796
289	22798
288	22800
288	22802
288	22804
289	22806
290	22808
292	22810
296	22812
300	22814
307	22816
314	22818
321	22820
331	22822
340	22824
349	22827
356	22829
363	22831
368	22833
372	22835
374	22837
374	22839
372	22841
370	22843
370	22845
365	22847
363	22849
358	22851
354	22853
350	22855
347	22857
343	22859
340	22861
336	22863
333	22865
330	22867
327	22870
324	22872
321	22874
318	22876
316	22878
312	22880
310	22882
307	22884
305	22886
303	22888
301	22890
299	22892
297	22894
293	22896
294	22898
292	22900
291	22902
287	22904
289	22906
286	22908
283	22910
282	22912
283	22914
282	22916
282	22918
281	22920
278	22922
280	22924
280	22926
280	22928
279	22930
279	22932
279	22934
279	22936
278	22938
278	22940
278	22942
278	22944
279	22946
279	22948
279	22950
280	22952
280	22955
280	22957
281	22959
281	22961
281	22963
282	22965
282	22967
283	22969
284	22971
284	22973
285	22975
286	22977
287	22979
288	22981
288	22983
289	22985
290	22987
291	22989
292	22991
293	22993
295	22995
296	22998
297	23000
298	23002
300	23004
302	23006
303	23008
305	23010
307	23012
308	23014
309	23016
311	23018
312	23020
314	23022
315	23024
317	23026
317	23028
319	23030
320	23032
323	23034
323	23036
324	23038
324	23040
323	23042
326	23044
325	23046
327	23048
327	23050
326	23052
327	23054
327	23056
327	23058
327	23060
327	23062
326	23064
326	23066
325	23068
326	23070
324	23072
323	23074
323	23076
321	23078
320	23080
319	23083
318	23085
318	23087
316	23089
315	23091
314	23093
313	23095
312	23097
312	23099
311	23101
310	23103
310	23105
308	23107
306	23109
306	23111
305	23113
304	23115
303	23117
302	23119
303	23121
300	23123
299	23126
298	23128
297	23130
297	23132
298	23134
296	23136
293	23138
292	23140
292	23142
293	23144
292	23146
291	23148
291	23150
290	23152
291	23154
289	23156
289	23158
288	23160
288	23162
287	23164
287	23166
286	23168
286	23170
287	23172
285	23174
285	23176
285	23178
287	23180
283	23182
283	23184
284	23186
281	23188
284	23190
283	23192
283	23194
283	23196
282	23198
282	23200
282	23202
284	23204
282	23206
282	23208
280	23211
282	23213
282	23215
282	23217
282	23219
282	23221
282	23223
282	23225
282	23227
282	23229
283	23231
282	23233
283	23235
283	23237
283	23239
284	23241
284	23243
284	23245
284	23247
285	23249
286	23251
285	23254
286	23256
287	23258
287	23260
289	23262
286	23264
288	23266
289	23268
290	23270
291	23272
291	23274
292	23276
292	23278
293	23280
293	23282
294	23284
294	23286
295	23288
295	23290
295	23292
295	23294
295	23296
295	23298
295	23300
296	23302
295	23304
295	23306
295	23308
295	23310
295	23312
294	23314
294	23316
294	23318
293	23320
293	23322
293	23324
292	23326
292	23328
292	23330
291	23332
291	23334
291	23336
291	23339
290	23341
290	23343
289	23345
290	23347
290	23349
290	23351
288	23353
290	23355
288	23357
290	23359
292	23361
290	23363
289	23365
288	23367
288	23369
288	23371
288	23373
290	23375
290	23377
293	23379
300	23382
303	23384
308	23386
317	23388
326	23390
334	23392
344	23394
351	23396
358	23398
364	23400
368	23402
370	23404
371	23406
369	23408
367	23410
364	23412
361	23414
358	23416
354	23418
350	23420
346	23422
344	23424
341	23426
337	23428
334	23430
331	23432
328	23434
325	23436
322	23438
319	23440
317	23442
314	23444
311	23446
309	23448
307	23450
304	23452
302	23454
300	23456
298	23458
297	23460
295	23462
293	23464
292	23467
289	23469
290	23471
289	23473
287	23475
286	23477
288	23479
284	23481
284	23483
283	23485
282	23487
282	23489
281	23491
281	23493
281	23495
281	23497
280	23499
280	23501
279	23503
280	23505
280	23507
279	23510
280	23512
280	23514
279	23516
281	23518
281	23520
281	23522
282	23524
280	23526
283	23528
283	23530
284	23532
285	23534
283	23536
286	23538
287	23540
287	23542
288	23544
289	23546
291	23548
291	23550
291	23552
292	23554
293	23556
294	23558
297	23560
296	23562
298	23564
299	23566
300	23568
301	23570
303	23572
304	23574
306	23576
308	23578
310	23580
311	23582
312	23584
313	23586
314	23588
316	23590
318	23592
319	23595
321	23597
322	23599
323	23601
324	23603
325	23605
327	23607
327	23609
328	23611
330	23613
329	23615
329	23617
332	23619
330	23621
330	23623
330	23625
330	23627
330	23629
329	23631
329	23633
329	23635
328	23638
329	23640
327	23642
326	23644
325	23646
322	23648
322	23650
323	23652
319	23654
320	23656
317	23658
318	23660
317	23662
316	23664
315	23666
312	23668
312	23670
311	23672
311	23674
309	23676
308	23678
307	23680
306	23682
305	23684
304	23686
303	23688
302	23690
301	23692
300	23694
299	23696
298	23698
298	23700
298	23702
296	23704
294	23706
295	23708
294	23710
293	23712
293	23714
292	23716
292	23718
291	23720
290	23723
289	23725
289	23727
287	23729
288	23731
287	23733
287	23735
287	23737
286	23739
288	23741
284	23743
284	23745
285	23747
285	23749
285	23751
284	23753
284	23755
284	23757
284	23759
284	23761
283	23763
283	23766
283	23768
283	23770
283	23772
285	23774
285	23776
283	23778
283	23780
281	23782
283	23784
283	23786
284	23788
285	23790
283	23792
284	23794
284	23796
284	23798
285	23800
285	23802
286	23804
286	23806
286	23808
286	23810
286	23812
287	23814
287	23816
288	23818
289	23820
289	23822
290	23824
291	23826
291	23828
292	23830
292	23832
293	23834
293	23836
293	23838
294	23840
294	23842
294	23844
294	23846
294	23848
294	23851
294	23853
294	23855
294	23857
294	23859
294	23861
291	23863
293	23865
292	23867
292	23869
291	23871
291	23873
293	23875
290	23877
290	23879
292	23881
290	23883
290	23885
289	23887
289	23889
289	23891
289	23894
289	23896
289	23898
289	23900
289	23902
289	23904
289	23906
289	23908
289	23910
288	23912
289	23914
288	23916
285	23918
287	23920
287	23922
290	23924
289	23926
291	23928
295	23930
299	23932
305	23934
308	23936
315	23938
323	23940
332	23942
341	23944
349	23946
356	23948
362	23950
366	23952
369	23954
370	23956
370	23958
368	23960
366	23962
362	23964
359	23966
355	23968
352	23970
347	23972
341	23974
340	23976
336	23979
332	23981
329	23983
324	23985
321	23987
321	23989
318	23991
315	23993
313	23995
310	23997
308	23999
306	24001
304	24003
302	24005
300	24007
300	24009
297	24011
295	24013
294	24015
292	24017
291	24019
290	24022
289	24024
288	24026
287	24028
286	24030
285	24032
284	24034
283	24036
282	24038
282	24040
282	24042
281	24044
281	24046
280	24048
280	24050
280	24052
280	24054
280	24056
281	24058
280	24060
280	24062
280	24064
280	24066
280	24068
280	24070
281	24072
281	24074
279	24076
282	24078
282	24080
283	24082
283	24084
284	24086
284	24088
285	24090
286	24092
287	24094
287	24096
288	24098
289	24100
289	24102
291	24104
292	24107
293	24109
294	24111
296	24113
297	24115
298	24117
299	24119
301	24121
303	24123
304	24125
306	24127
307	24129
309	24131
310	24133
312	24135
313	24137
314	24139
317	24141
317	24143
318	24145
322	24147
321	24150
322	24152
323	24154
323	24156
325	24158
326	24160
327	24162
329	24164
328	24166
328	24168
328	24170
329	24172
328	24174
328	24176
328	24178
328	24180
329	24182
327	24184
327	24186
328	24188
325	24190
325	24192
324	24194
324	24196
323	24198
322	24200
321	24202
320	24204
319	24206
319	24208
317	24210
316	24212
317	24214
314	24216
313	24218
312	24220
311	24222
310	24224
309	24226
308	24228
307	24230
306	24232
305	24235
302	24237
303	24239
303	24241
302	24243
301	24245
300	24247
298	24249
299	24251
298	24253
297	24255
296	24257
296	24259
295	24261
294	24263
294	24265
293	24267
292	24269
292	24271
291	24273
291	24275
291	24278
288	24280
288	24282
289	24284
289	24286
288	24288
287	24290
288	24292
288	24294
286	24296
287	24298
286	24300
286	24302
286	24304
286	24306
286	24308
285	24310
285	24312
285	24314
285	24316
285	24318
284	24320
284	24322
286	24324
285	24326
284	24328
284	24330
284	24332
284	24334
285	24336
285	24338
286	24340
286	24342
287	24344
287	24346
288	24348
288	24350
288	24352
288	24354
288	24356
289	24358
289	24360
288	24363
290	24365
290	24367
292	24369
292	24371
292	24373
293	24375
293	24377
294	24379
294	24381
294	24383
295	24385
295	24387
295	24389
296	24391
295	24393
295	24395
295	24397
294	24399
294	24401
294	24403
296	24406
294	24408
294	24410
294	24412
292	24414
293	24416
293	24418
292	24420
292	24422
292	24424
292	24426
291	24428
291	24430
291	24432
291	24434
292	24436
291	24438
291	24440
290	24442
290	24444
292	24446
290	24448
290	24450
290	24452
290	24454
290	24456
290	24458
287	24460
289	24462
289	24464
288	24466
288	24468
288	24470
289	24472
290	24474
293	24476
296	24478
301	24480
307	24482
314	24484
323	24486
332	24488
341	24491
349	24493
357	24495
364	24497
369	24499
373	24501
375	24503
373	24505
374	24507
371	24509
369	24511
365	24513
362	24515
358	24517
355	24519
350	24521
347	24523
343	24525
340	24527
336	24529
332	24531
330	24534
326	24536
324	24538
321	24540
316	24542
316	24544
313	24546
310	24548
308	24550
305	24552
304	24554
301	24556
299	24558
297	24560
294	24562
294	24564
293	24566
291	24568
289	24570
288	24572
289	24574
286	24576
285	24578
284	24580
283	24582
283	24584
282	24586
281	24588
281	24590
280	24592
279	24594
279	24596
279	24598
277	24600
278	24602
278	24604
278	24606
278	24608
278	24610
279	24612
278	24614
279	24616
279	24619
279	24621
280	24623
280	24625
280	24627
283	24629
282	24631
282	24633
283	24635
283	24637
284	24639
284	24641
286	24643
286	24645
287	24647
288	24649
289	24651
290	24653
291	24655
292	24657
291	24659
295	24662
296	24664
297	24666
299	24668
300	24670
302	24672
305	24674
306	24676
306	24678
307	24680
309	24682
310	24684
312	24686
313	24688
315	24690
316	24692
317	24694
318	24696
319	24698
320	24700
321	24702
322	24704
323	24706
324	24708
324	24710
324	24712
325	24714
325	24716
325	24718
325	24720
324	24722
325	24724
325	24726
325	24728
325	24730
324	24732
323	24734
323	24736
322	24738
322	24740
323	24742
320	24744
319	24747
318	24749
315	24751
317	24753
314	24755
315	24757
314	24759
313	24761
312	24763
310	24765
310	24767
310	24769
309	24771
307	24773
306	24775
306	24777
305	24779
304	24781
303	24783
302	24785
301	24787
301	24790
300	24792
301	24794
299	24796
298	24798
297	24800
295	24802
296	24804
293	24806
294	24808
294	24810
294	24812
293	24814
292	24816
292	24818
292	24820
292	24822
291	24824
291	24826
291	24828
290	24830
290	24832
290	24834
289	24836
289	24838
289	24840
287	24842
288	24844
288	24846
288	24848
288	24850
287	24852
287	24854
287	24856
286	24858
287	24860
286	24862
286	24864
285	24866
285	24868
285	24870
285	24872
285	24875
286	24877
286	24879
286	24881
287	24883
287	24885
287	24887
288	24889
288	24891
288	24893
288	24895
288	24897
289	24899
288	24901
289	24903
290	24905
291	24907
289	24909
291	24911
292	24913
293	24915
294	24918
295	24920
294	24922
295	24924
295	24926
295	24928
295	24930
295	24932
295	24934
295	24936
296	24938
295	24940
295	24942
295	24944
295	24946
295	24948
295	24950
294	24952
292	24954
294	24956
293	24958
292	24960
292	24962
292	24964
291	24966
291	24968
291	24970
291	24972
291	24974
291	24976
291	24978
291	24980
291	24982
291	24984
290	24986
290	24988
290	24990
290	24992
290	24994
290	24996
290	24998
290	25000
290	25003
289	25005
289	25007
289	25009
288	25011
288	25013
288	25015
289	25017
292	25019
295	25021
299	25023
304	25025
311	25027
318	25029
327	25031
336	25033
345	25035
353	25037
361	25039
367	25041
372	25043
376	25046
375	25048
376	25050
374	25052
372	25054
370	25056
367	25058
363	25060
359	25062
356	25064
352	25066
348	25068
345	25070
341	25072
338	25074
334	25076
329	25078
327	25080
324	25082
321	25084
318	25086
315	25088
314	25090
311	25092
309	25094
307	25096
304	25098
302	25100
302	25102
298	25104
296	25106
294	25108
292	25110
291	25112
289	25114
288	25116
286	25118
285	25120
284	25122
283	25124
282	25126
281	25128
280	25131
278	25133
279	25135
279	25137
278	25139
279	25141
278	25143
279	25145
277	25147
277	25149
277	25151
277	25153
277	25155
277	25157
277	25159
278	25161
278	25163
278	25165
279	25167
279	25169
280	25171
280	25174
281	25176
281	25178
282	25180
282	25182
283	25184
284	25186
285	25188
285	25190
286	25192
287	25194
288	25196
291	25198
290	25200
292	25202
293	25204
294	25206
295	25208
296	25210
298	25212
299	25214
298	25216
299	25218
303	25220
305	25222
306	25224
307	25226
309	25228
310	25230
311	25232
311	25234
314	25236
317	25238
317	25240
318	25242
319	25244
320	25246
320	25248
322	25250
322	25252
323	25254
323	25256
322	25259
324	25261
324	25263
324	25265
324	25267
324	25269
324	25271
324	25273
323	25275
323	25277
322	25279
321	25281
321	25283
320	25285
319	25287
318	25289
315	25291
316	25293
315	25295
314	25297
314	25299
313	25302
312	25304
311	25306
310	25308
309	25310
308	25312
307	25314
306	25316
306	25318
302	25320
304	25322
303	25324
302	25326
302	25328
301	25330
301	25332
302	25334
301	25336
299	25338
298	25340
298	25342
297	25344
296	25346
296	25348
295	25350
294	25352
294	25354
294	25356
293	25358
290	25360
291	25362
291	25364
291	25366
291	25368
290	25370
290	25372
290	25374
289	25376
289	25378
291	25380
288	25382
288	25384
287	25387
287	25389
287	25391
287	25393
286	25395
286	25397
286	25399
288	25401
286	25403
286	25405
286	25407
287	25409
286	25411
286	25413
286	25415
286	25417
285	25419
286	25421
287	25423
287	25425
285	25427
288	25430
288	25432
288	25434
288	25436
288	25438
289	25440
289	25442
290	25444
290	25446
290	25448
291	25450
292	25452
292	25454
293	25456
293	25458
293	25460
294	25462
294	25464
294	25466
294	25468
294	25470
294	25472
294	25474
294	25476
294	25478
295	25480
294	25482
293	25484
294	25486
294	25488
294	25490
294	25492
294	25494
292	25496
292	25498
292	25500
289	25502
291	25504
291	25506
291	25508
292	25510
290	25512
290	25515
290	25517
290	25519
290	25521
290	25523
289	25525
290	25527
290	25529
290	25531
289	25533
290	25535
287	25537
289	25539
289	25541
288	25543
288	25545
287	25547
287	25549
287	25551
288	25553
289	25555
290	25558
295	25560
300	25562
305	25564
313	25566
323	25568
330	25570
339	25572
348	25574
357	25576
364	25578
370	25580
374	25582
377	25584
378	25586
376	25588
374	25590
372	25592
370	25594
366	25596
363	25598
360	25600
357	25602
353	25604
349	25606
346	25608
342	25610
338	25612
335	25614
332	25616
329	25618
326	25620
322	25622
319	25624
317	25626
314	25628
311	25630
308	25632
307	25634
303	25636
301	25638
299	25640
297	25643
295	25645
293	25647
292	25649
290	25651
288	25653
287	25655
286	25657
284	25659
283	25661
282	25663
282	25665
281	25667
280	25669
280	25671
279	25673
279	25675
278	25677
278	25679
277	25681
279	25683
278	25686
277	25688
277	25690
276	25692
277	25694
277	25696
277	25698
277	25700
277	25702
278	25704
278	25706
278	25708
281	25710
281	25712
280	25714
280	25716
281	25718
281	25720
282	25722
283	25724
284	25726
284	25728
287	25730
286	25732
287	25734
288	25736
289	25738
290	25740
291	25742
293	25744
294	25746
293	25748
295	25750
299	25752
300	25754
302	25756
303	25758
305	25760
306	25762
307	25764
308	25766
309	25768
311	25771
314	25773
314	25775
313	25777
316	25779
317	25781
318	25783
319	25785
319	25787
320	25789
321	25791
322	25793
322	25795
323	25797
323	25799
323	25801
323	25803
323	25805
323	25807
323	25809
322	25811
322	25814
319	25816
320	25818
320	25820
319	25822
318	25824
318	25826
317	25828
316	25830
315	25832
314	25834
313	25836
312	25838
309	25840
311	25842
310	25844
309	25846
309	25848
307	25850
307	25852
306	25854
305	25856
304	25858
302	25860
303	25862
302	25864
302	25866
301	25868
300	25870
299	25872
299	25874
299	25876
298	25878
298	25880
297	25882
295	25884
296	25886
295	25888
297	25890
293	25892
294	25894
293	25896
293	25899
292	25901
292	25903
293	25905
289	25907
290	25909
289	25911
289	25913
289	25915
289	25917
288	25919
288	25921
288	25923
288	25925
287	25927
287	25929
287	25931
287	25933
286	25935
287	25937
286	25939
286	25942
286	25944
286	25946
286	25948
286	25950
286	25952
286	25954
286	25956
286	25958
287	25960
287	25962
287	25964
288	25966
288	25968
288	25970
288	25972
288	25974
288	25976
289	25978
287	25980
290	25982
290	25984
290	25986
290	25988
289	25990
291	25992
292	25994
292	25996
292	25998
293	26000
293	26002
294	26004
294	26006
294	26008
293	26010
295	26012
295	26014
294	26016
294	26018
297	26020
294	26022
294	26024
294	26027
294	26029
295	26031
294	26033
293	26035
293	26037
290	26039
292	26041
292	26043
292	26045
291	26047
291	26049
291	26051
290	26053
290	26055
291	26057
288	26059
290	26061
290	26063
290	26065
290	26067
290	26070
289	26072
289	26074
289	26076
290	26078
290	26080
288	26082
287	26084
287	26086
287	26088
287	26090
287	26092
289	26094
291	26096
294	26098
298	26100
304	26102
310	26104
318	26106
326	26108
336	26110
341	26112
350	26114
356	26116
365	26118
371	26120
375	26122
378	26124
379	26126
377	26128
376	26130
376	26132
372	26134
368	26136
364	26138
360	26140
354	26142
354	26144
348	26146
344	26148
341	26150
337	26152
334	26155
330	26157
328	26159
324	26161
321	26163
318	26165
314	26167
311	26169
308	26171
306	26173
306	26175
302	26177
299	26179
297	26181
297	26183
292	26185
293	26187
290	26189
288	26191
287	26193
286	26195
285	26198
283	26200
282	26202
281	26204
281	26206
280	26208
279	26210
279	26212
277	26214
278	26216
277	26218
277	26220
277	26222
277	26224
277	26226
277	26228
278	26230
276	26232
276	26234
277	26236
275	26238
277	26240
277	26242
278	26244
278	26246
278	26248
279	26250
279	26252
280	26254
281	26256
281	26258
282	26260
280	26262
282	26264
284	26266
284	26268
285	26270
286	26272
287	26274
288	26276
289	26278
291	26280
290	26283
293	26285
294	26287
296	26289
297	26291
298	26293
300	26295
301	26297
304	26299
303	26301
306	26303
307	26305
308	26307
310	26309
311	26311
313	26313
314	26315
315	26317
317	26319
318	26321
319	26323
320	26326
321	26328
321	26330
322	26332
322	26334
323	26336
323	26338
323	26340
324	26342
323	26344
322	26346
323	26348
323	26350
322	26352
321	26354
320	26356
320	26358
319	26360
318	26362
317	26364
316	26366
316	26368
315	26370
314	26372
313	26374
312	26376
311	26378
310	26380
309	26382
308	26384
308	26386
307	26388
306	26390
303	26392
304	26394
304	26396
303	26398
302	26400
302	26402
301	26404
299	26406
300	26408
299	26411
299	26413
299	26415
298	26417
298	26419
297	26421
296	26423
295	26425
295	26427
294	26429
294	26431
293	26433
293	26435
293	26437
293	26439
294	26441
292	26443
292	26445
291	26447
291	26449
290	26451
290	26454
289	26456
290	26458
289	26460
289	26462
287	26464
288	26466
288	26468
288	26470
287	26472
287	26474
287	26476
287	26478
287	26480
287	26482
288	26484
287	26486
287	26488
287	26490
287	26492
285	26494
287	26496
286	26498
287	26500
288	26502
287	26504
288	26506
287	26508
288	26510
289	26512
289	26514
289	26516
288	26518
289	26520
290	26522
290	26524
290	26526
289	26528
292	26530
292	26532
292	26534
293	26536
293	26539
293	26541
294	26543
294	26545
296	26547
295	26549
295	26551
295	26553
295	26555
296	26557
297	26559
295	26561
295	26563
295	26565
294	26567
295	26569
294	26571
294	26573
294	26575
293	26577
293	26579
293	26582
292	26584
292	26586
290	26588
291	26590
291	26592
291	26594
291	26596
291	26598
290	26600
290	26602
290	26604
292	26606
290	26608
289	26610
290	26612
290	26614
290	26616
290	26618
290	26620
287	26622
289	26624
290	26626
290	26628
288	26630
288	26632
289	26634
291	26636
293	26638
296	26640
301	26642
308	26644
313	26646
322	26648
330	26650
337	26652
348	26654
356	26656
362	26658
368	26660
372	26662
373	26664
375	26667
373	26669
371	26671
369	26673
366	26675
362	26677
359	26679
355	26681
351	26683
347	26685
343	26687
340	26689
336	26691
335	26693
330	26695
327	26697
324	26699
320	26701
318	26703
316	26705
313	26707
310	26710
308	26712
305	26714
304	26716
302	26718
300	26720
298	26722
296	26724
295	26726
294	26728
292	26730
291	26732
289	26734
287	26736
286	26738
284	26740
283	26742
281	26744
283	26746
282	26748
281	26750
279	26752
281	26754
280	26756
278	26758
282	26760
280	26762
280	26764
280	26766
280	26768
280	26770
280	26772
280	26774
280	26776
280	26778
280	26780
280	26782
281	26784
282	26786
283	26788
284	26790
284	26792
285	26795
284	26797
284	26799
284	26801
285	26803
286	26805
287	26807
289	26809
289	26811
290	26813
291	26815
292	26817
294	26819
295	26821
297	26823
298	26825
300	26827
302	26829
303	26831
303	26833
306	26835
307	26838
308	26840
310	26842
311	26844
313	26846
314	26848
316	26850
317	26852
318	26854
319	26856
320	26858
322	26860
322	26862
322	26864
323	26866
323	26868
324	26870
325	26872
326	26874
326	26876
326	26878
326	26880
326	26882
325	26884
325	26886
324	26888
324	26890
323	26892
321	26894
321	26896
321	26898
319	26900
320	26902
320	26904
319	26906
319	26908
318	26910
318	26912
317	26914
316	26916
316	26918
314	26920
312	26923
311	26925
309	26927
308	26929
306	26931
307	26933
309	26935
306	26937
306	26939
306	26941
305	26943
305	26945
304	26947
304	26949
303	26951
300	26953
302	26955
302	26957
301	26959
298	26961
300	26963
302	26966
299	26968
299	26970
300	26972
297	26974
297	26976
297	26978
294	26980
295	26982
294	26984
293	26986
293	26988
293	26990
292	26992
292	26994
294	26996
291	26998
291	27000
290	27002
291	27004
291	27006
291	27008
291	27010
291	27012
290	27014
293	27016
291	27018
289	27020
289	27022
288	27024
288	27026
288	27028
288	27030
287	27032
288	27034
288	27036
288	27038
290	27040
286	27042
288	27044
288	27046
288	27048
288	27051
288	27053
289	27055
289	27057
290	27059
290	27061
288	27063
291	27065
291	27067
292	27069
290	27071
290	27073
290	27075
290	27077
291	27079
291	27081
293	27083
294	27085
296	27087
295	27089
295	27091
296	27094
298	27096
296	27098
296	27100
294	27102
297	27104
297	27106
297	27108
296	27110
297	27112
294	27114
296	27116
295	27118
296	27120
296	27122
296	27124
297	27126
296	27128
295	27130
294	27132
294	27134
293	27136
292	27138
291	27140
291	27142
291	27144
291	27146
291	27148
291	27150
291	27152
290	27154
291	27156
291	27158
293	27160
292	27162
291	27164
290	27166
291	27168
290	27170
290	27172
290	27174
290	27176
290	27179
290	27181
291	27183
292	27185
294	27187
296	27189
297	27191
304	27193
309	27195
314	27197
323	27199
331	27201
340	27203
350	27205
357	27207
362	27209
367	27211
372	27213
376	27215
377	27217
376	27219
375	27222
374	27224
371	27226
368	27228
365	27230
363	27232
356	27234
354	27236
351	27238
347	27240
344	27242
340	27244
337	27246
334	27248
329	27250
325	27252
322	27254
318	27256
316	27258
313	27260
311	27262
310	27264
308	27266
305	27268
303	27270
300	27272
299	27274
297	27276
295	27278
293	27280
292	27282
288	27284
288	27286
287	27288
285	27290
285	27292
283	27294
282	27296
282	27298
281	27300
280	27302
280	27304
279	27307
278	27309
276	27311
275	27313
275	27315
275	27317
276	27319
275	27321
276	27323
275	27325
276	27327
276	27329
276	27331
277	27333
277	27335
278	27337
278	27339
279	27341
279	27343
279	27345
280	27347
281	27350
281	27352
282	27354
284	27356
283	27358
282	27360
284	27362
286	27364
288	27366
288	27368
289	27370
290	27372
291	27374
291	27376
293	27378
294	27380
296	27382
297	27384
296	27386
300	27388
302	27390
302	27392
303	27394
304	27396
305	27398
308	27400
308	27402
310	27404
311	27406
313	27408
314	27410
316	27412
317	27414
318	27416
318	27418
319	27420
320	27422
322	27424
320	27426
320	27428
320	27430
319	27432
319	27435
319	27437
319	27439
319	27441
318	27443
318	27445
318	27447
317	27449
316	27451
315	27453
314	27455
313	27457
312	27459
310	27461
312	27463
311	27465
310	27467
309	27469
308	27471
307	27473
306	27475
306	27478
306	27480
305	27482
305	27484
303	27486
303	27488
302	27490
301	27492
299	27494
300	27496
300	27498
299	27500
299	27502
299	27504
298	27506
297	27508
297	27510
296	27512
293	27514
295	27516
294	27518
294	27520
294	27522
293	27524
293	27526
293	27528
292	27530
292	27532
291	27534
292	27536
291	27538
291	27540
291	27542
292	27544
291	27546
293	27548
291	27550
291	27552
290	27554
290	27556
289	27558
289	27560
289	27563
289	27565
288	27567
288	27569
288	27571
288	27573
288	27575
288	27577
288	27579
287	27581
286	27583
285	27585
285	27587
285	27589
284	27591
286	27593
286	27595
285	27597
287	27599
287	27601
286	27603
286	27606
286	27608
285	27610
285	27612
286	27614
286	27616
287	27618
288	27620
288	27622
291	27624
290	27626
290	27628
290	27630
291	27632
292	27634
294	27636
292	27638
292	27640
292	27642
292	27644
292	27646
292	27648
293	27650
294	27652
295	27654
295	27656
296	27658
296	27660
297	27662
297	27664
296	27666
298	27668
297	27670
298	27672
298	27674
295	27676
297	27678
297	27680
296	27682
297	27684
296	27686
296	27688
296	27691
296	27693
297	27695
294	27697
294	27699
294	27701
294	27703
294	27705
294	27707
295	27709
295	27711
295	27713
296	27715
294	27717
294	27719
294	27721
294	27723
294	27725
293	27727
292	27729
292	27731
292	27734
293	27736
293	27738
293	27740
293	27742
292	27744
292	27746
291	27748
291	27750
291	27752
291	27754
295	27756
295	27758
298	27760
301	27762
306	27764
311	27766
318	27768
325	27770
334	27772
342	27774
347	27776
355	27778
362	27780
368	27782
372	27784
376	27786
378	27788
378	27790
377	27792
375	27794
374	27796
371	27798
368	27800
364	27802
361	27804
356	27806
353	27808
349	27810
346	27812
342	27814
339	27816
336	27819
333	27821
329	27823
326	27825
323	27827
320	27829
317	27831
314	27833
311	27835
309	27837
307	27839
304	27841
301	27843
299	27845
295	27847
295	27849
294	27851
293	27853
291	27855
290	27857
289	27859
288	27862
287	27864
286	27866
285	27868
281	27870
282	27872
281	27874
281	27876
281	27878
281	27880
281	27882
281	27884
280	27886
280	27888
279	27890
279	27892
279	27894
279	27896
279	27898
276	27900
277	27902
277	27904
277	27906
277	27908
279	27910
280	27912
281	27914
281	27916
281	27918
282	27920
281	27922
282	27924
285	27926
283	27928
284	27930
285	27932
286	27934
290	27936
290	27938
291	27940
292	27942
294	27944
295	27947
297	27949
298	27951
299	27953
300	27955
301	27957
302	27959
306	27961
306	27963
308	27965
310	27967
312	27969
313	27971
311	27973
313	27975
313	27977
314	27979
316	27981
318	27983
319	27985
320	27987
322	27990
322	27992
323	27994
323	27996
324	27998
324	28000
324	28002
323	28004
323	28006
323	28008
323	28010
323	28012
322	28014
322	28016
322	28018
321	28020
320	28022
319	28024
319	28026
315	28028
314	28030
313	28032
312	28034
311	28036
311	28038
312	28040
309	28042
308	28044
308	28046
307	28048
307	28050
306	28052
304	28054
305	28056
304	28058
303	28060
302	28062
301	28064
300	28066
299	28068
299	28070
299	28072
298	28075
299	28077
298	28079
298	28081
297	28083
296	28085
295	28087
294	28089
292	28091
292	28093
291	28095
291	28097
291	28099
291	28101
294	28103
292	28105
293	28107
294	28109
294	28111
292	28113
290	28115
291	28118
290	28120
288	28122
289	28124
287	28126
289	28128
289	28130
288	28132
286	28134
288	28136
288	28138
288	28140
288	28142
288	28144
289	28146
288	28148
286	28150
284	28152
284	28154
284	28156
284	28158
284	28160
285	28162
284	28164
284	28166
284	28168
287	28170
285	28172
286	28174
287	28176
